5.007433220 669.0
5.018299660 639.0
5.029166100 627.0
5.040032540 622.0
5.050898980 628.0
5.061765420 682.0
5.072631860 594.0
5.083498300 655.0
5.094364740 619.0
5.105231180 619.0
5.116097620 638.0
5.126964060 631.0
5.137830500 604.0
5.148696940 623.0
5.159563380 619.0
5.170429820 650.0
5.181296260 604.0
5.192162700 612.0
5.203029140 586.0
5.213895580 608.0
5.224762020 594.0
5.235628460 606.0
5.246494900 598.0
5.257361340 593.0
5.268227780 571.0
5.279094220 601.0
5.289960660 609.0
5.300827100 610.0
5.311693540 569.0
5.322559980 583.0
5.333426420 612.0
5.344292860 574.0
5.355159300 572.0
5.366025740 548.0
5.376892180 550.0
5.387758620 559.0
5.398625060 605.0
5.409491500 538.0
5.420357940 551.0
5.431224380 559.0
5.442090820 512.0
5.452957260 555.0
5.463823700 546.0
5.474690140 510.0
5.485556580 527.0
5.496423020 554.0
5.507289460 566.0
5.518155900 512.0
5.529022340 534.0
5.539888780 540.0
5.550755220 540.0
5.561621660 544.0
5.572488100 509.0
5.583354540 516.0
5.594220980 505.0
5.605087420 550.0
5.615953860 519.0
5.626820300 493.0
5.637686740 502.0
5.648553180 530.0
5.659419620 535.0
5.670286060 479.0
5.681152500 494.0
5.692018940 483.0
5.702885380 463.0
5.713751820 502.0
5.724618260 522.0
5.735484700 488.0
5.746351140 433.0
5.757217580 494.0
5.768084020 471.0
5.778950460 471.0
5.789816900 492.0
5.800683340 424.0
5.811549780 485.0
5.822416220 508.0
5.833282660 516.0
5.844149100 505.0
5.855015540 472.0
5.865881980 458.0
5.876748420 476.0
5.887614860 451.0
5.898481300 457.0
5.909347740 467.0
5.920214180 447.0
5.931080620 448.0
5.941947060 456.0
5.952813500 433.0
5.963679940 461.0
5.974546380 463.0
5.985412820 414.0
5.996279260 420.0
6.007145700 425.0
6.018012140 441.0
6.028878580 428.0
6.039745020 440.0
6.050611460 437.0
6.061477900 450.0
6.072344340 460.0
6.083210780 444.0
6.094077220 415.0
6.104943660 454.0
6.115810100 448.0
6.126676540 444.0
6.137542980 473.0
6.148409420 452.0
6.159275860 420.0
6.170142300 449.0
6.181008740 406.0
6.191875180 431.0
6.202741620 432.0
6.213608060 416.0
6.224474500 456.0
6.235340940 409.0
6.246207380 405.0
6.257073820 416.0
6.267940260 409.0
6.278806700 426.0
6.289673140 426.0
6.300539580 443.0
6.311406020 351.0
6.322272460 428.0
6.333138900 419.0
6.344005340 420.0
6.354871780 458.0
6.365738220 421.0
6.376604660 447.0
6.387471100 417.0
6.398337540 409.0
6.409203980 404.0
6.420070420 400.0
6.430936860 438.0
6.441803300 420.0
6.452669740 386.0
6.463536180 407.0
6.474402620 408.0
6.485269060 411.0
6.496135500 437.0
6.507001940 414.0
6.517868380 414.0
6.528734820 388.0
6.539601260 378.0
6.550467700 428.0
6.561334140 392.0
6.572200580 412.0
6.583067020 414.0
6.593933460 369.0
6.604799900 393.0
6.615666340 413.0
6.626532780 364.0
6.637399220 358.0
6.648265660 365.0
6.659132100 381.0
6.669998540 358.0
6.680864980 360.0
6.691731420 381.0
6.702597860 358.0
6.713464300 378.0
6.724330740 393.0
6.735197180 383.0
6.746063620 374.0
6.756930060 373.0
6.767796500 385.0
6.778662940 366.0
6.789529380 386.0
6.800395820 342.0
6.811262260 372.0
6.822128700 393.0
6.832995140 360.0
6.843861580 363.0
6.854728020 327.0
6.865594460 354.0
6.876460900 366.0
6.887327340 346.0
6.898193780 352.0
6.909060220 327.0
6.919926660 357.0
6.930793100 333.0
6.941659540 380.0
6.952525980 364.0
6.963392420 366.0
6.974258860 332.0
6.985125300 366.0
6.995991740 341.0
7.006858180 355.0
7.017724620 349.0
7.028591060 351.0
7.039457500 334.0
7.050323940 353.0
7.061190380 355.0
7.072056820 346.0
7.082923260 338.0
7.093789700 340.0
7.104656140 358.0
7.115522580 334.0
7.126389020 344.0
7.137255460 320.0
7.148121900 342.0
7.158988340 350.0
7.169854780 354.0
7.180721220 349.0
7.191587660 320.0
7.202454100 315.0
7.213320540 333.0
7.224186980 370.0
7.235053420 355.0
7.245919860 321.0
7.256786300 353.0
7.267652740 348.0
7.278519180 356.0
7.289385620 329.0
7.300252060 341.0
7.311118500 330.0
7.321984940 330.0
7.332851380 315.0
7.343717820 338.0
7.354584260 341.0
7.365450700 346.0
7.376317140 303.0
7.387183580 325.0
7.398050020 343.0
7.408916460 291.0
7.419782900 355.0
7.430649340 370.0
7.441515780 291.0
7.452382220 361.0
7.463248660 303.0
7.474115100 321.0
7.484981540 317.0
7.495847980 315.0
7.506714420 312.0
7.517580860 319.0
7.528447300 314.0
7.539313740 329.0
7.550180180 366.0
7.561046620 290.0
7.571913060 314.0
7.582779500 337.0
7.593645940 335.0
7.604512380 300.0
7.615378820 294.0
7.626245260 323.0
7.637111700 332.0
7.647978140 273.0
7.658844580 307.0
7.669711020 334.0
7.680577460 316.0
7.691443900 310.0
7.702310340 317.0
7.713176780 346.0
7.724043220 318.0
7.734909660 305.0
7.745776100 306.0
7.756642540 343.0
7.767508980 297.0
7.778375420 348.0
7.789241860 326.0
7.800108300 336.0
7.810974740 304.0
7.821841180 312.0
7.832707620 321.0
7.843574060 296.0
7.854440500 327.0
7.865306940 322.0
7.876173380 337.0
7.887039820 319.0
7.897906260 281.0
7.908772700 331.0
7.919639140 273.0
7.930505580 328.0
7.941372020 297.0
7.952238460 309.0
7.963104900 310.0
7.973971340 312.0
7.984837780 333.0
7.995704220 290.0
8.006570660 322.0
8.017437100 304.0
8.028303540 305.0
8.039169980 333.0
8.050036420 338.0
8.060902860 297.0
8.071769300 324.0
8.082635740 301.0
8.093502180 290.0
8.104368620 307.0
8.115235060 283.0
8.126101500 294.0
8.136967940 289.0
8.147834380 298.0
8.158700820 295.0
8.169567260 273.0
8.180433700 266.0
8.191300140 300.0
8.202166580 320.0
8.213033020 269.0
8.223899460 302.0
8.234765900 308.0
8.245632340 321.0
8.256498780 312.0
8.267365220 332.0
8.278231660 306.0
8.289098100 274.0
8.299964540 302.0
8.310830980 287.0
8.321697420 315.0
8.332563860 277.0
8.343430300 322.0
8.354296740 302.0
8.365163180 306.0
8.376029620 328.0
8.386896060 291.0
8.397762500 309.0
8.408628940 293.0
8.419495380 296.0
8.430361820 284.0
8.441228260 284.0
8.452094700 294.0
8.462961140 247.0
8.473827580 297.0
8.484694020 259.0
8.495560460 247.0
8.506426900 285.0
8.517293340 276.0
8.528159780 262.0
8.539026220 278.0
8.549892660 284.0
8.560759100 304.0
8.571625540 310.0
8.582491980 291.0
8.593358420 326.0
8.604224860 273.0
8.615091300 285.0
8.625957740 298.0
8.636824180 310.0
8.647690620 281.0
8.658557060 293.0
8.669423500 297.0
8.680289940 278.0
8.691156380 265.0
8.702022820 296.0
8.712889260 316.0
8.723755700 277.0
8.734622140 293.0
8.745488580 300.0
8.756355020 262.0
8.767221460 300.0
8.778087900 286.0
8.788954340 305.0
8.799820780 300.0
8.810687220 295.0
8.821553660 271.0
8.832420100 306.0
8.843286540 280.0
8.854152980 295.0
8.865019420 270.0
8.875885860 277.0
8.886752300 293.0
8.897618740 302.0
8.908485180 274.0
8.919351620 279.0
8.930218060 285.0
8.941084500 301.0
8.951950940 295.0
8.962817380 264.0
8.973683820 270.0
8.984550260 287.0
8.995416700 305.0
9.006283140 308.0
9.017149580 277.0
9.028016020 270.0
9.038882460 301.0
9.049748900 274.0
9.060615340 290.0
9.071481780 287.0
9.082348220 264.0
9.093214660 270.0
9.104081100 266.0
9.114947540 270.0
9.125813980 260.0
9.136680420 247.0
9.147546860 276.0
9.158413300 292.0
9.169279740 278.0
9.180146180 257.0
9.191012620 264.0
9.201879060 269.0
9.212745500 268.0
9.223611940 260.0
9.234478380 267.0
9.245344820 271.0
9.256211260 272.0
9.267077700 275.0
9.277944140 239.0
9.288810580 277.0
9.299677020 236.0
9.310543460 272.0
9.321409900 265.0
9.332276340 260.0
9.343142780 273.0
9.354009220 290.0
9.364875660 247.0
9.375742100 242.0
9.386608540 229.0
9.397474980 309.0
9.408341420 272.0
9.419207860 272.0
9.430074300 259.0
9.440940740 269.0
9.451807180 264.0
9.462673620 271.0
9.473540060 311.0
9.484406500 256.0
9.495272940 258.0
9.506139380 261.0
9.517005820 248.0
9.527872260 265.0
9.538738700 242.0
9.549605140 262.0
9.560471580 264.0
9.571338020 267.0
9.582204460 298.0
9.593070900 298.0
9.603937340 286.0
9.614803780 229.0
9.625670220 246.0
9.636536660 308.0
9.647403100 271.0
9.658269540 266.0
9.669135980 279.0
9.680002420 238.0
9.690868860 247.0
9.701735300 290.0
9.712601740 262.0
9.723468180 273.0
9.734334620 272.0
9.745201060 273.0
9.756067500 288.0
9.766933940 268.0
9.777800380 246.0
9.788666820 240.0
9.799533260 269.0
9.810399700 247.0
9.821266140 280.0
9.832132580 282.0
9.842999020 274.0
9.853865460 303.0
9.864731900 247.0
9.875598340 269.0
9.886464780 246.0
9.897331220 267.0
9.908197660 259.0
9.919064100 257.0
9.929930540 261.0
9.940796980 248.0
9.951663420 258.0
9.962529860 243.0
9.973396300 268.0
9.984262740 256.0
9.995129180 289.0
10.005995620 237.0
10.016862060 283.0
10.027728500 293.0
10.038594940 284.0
10.049461380 249.0
10.060327820 225.0
10.071194260 273.0
10.082060700 285.0
10.092927140 269.0
10.103793580 248.0
10.114660020 236.0
10.125526460 285.0
10.136392900 249.0
10.147259340 276.0
10.158125780 264.0
10.168992220 222.0
10.179858660 275.0
10.190725100 266.0
10.201591540 257.0
10.212457980 256.0
10.223324420 249.0
10.234190860 237.0
10.245057300 258.0
10.255923740 263.0
10.266790180 237.0
10.277656620 263.0
10.288523060 245.0
10.299389500 206.0
10.310255940 240.0
10.321122380 233.0
10.331988820 244.0
10.342855260 261.0
10.353721700 261.0
10.364588140 239.0
10.375454580 225.0
10.386321020 229.0
10.397187460 263.0
10.408053900 279.0
10.418920340 264.0
10.429786780 243.0
10.440653220 263.0
10.451519660 266.0
10.462386100 248.0
10.473252540 264.0
10.484118980 222.0
10.494985420 262.0
10.505851860 217.0
10.516718300 275.0
10.527584740 263.0
10.538451180 238.0
10.549317620 276.0
10.560184060 250.0
10.571050500 243.0
10.581916940 259.0
10.592783380 239.0
10.603649820 272.0
10.614516260 256.0
10.625382700 275.0
10.636249140 275.0
10.647115580 264.0
10.657982020 264.0
10.668848460 248.0
10.679714900 231.0
10.690581340 242.0
10.701447780 259.0
10.712314220 242.0
10.723180660 242.0
10.734047100 243.0
10.744913540 279.0
10.755779980 269.0
10.766646420 238.0
10.777512860 267.0
10.788379300 266.0
10.799245740 238.0
10.810112180 234.0
10.820978620 263.0
10.831845060 231.0
10.842711500 262.0
10.853577940 245.0
10.864444380 244.0
10.875310820 233.0
10.886177260 236.0
10.897043700 264.0
10.907910140 229.0
10.918776580 260.0
10.929643020 286.0
10.940509460 259.0
10.951375900 278.0
10.962242340 275.0
10.973108780 247.0
10.983975220 257.0
10.994841660 240.0
11.005708100 239.0
11.016574540 227.0
11.027440980 233.0
11.038307420 268.0
11.049173860 263.0
11.060040300 263.0
11.070906740 218.0
11.081773180 246.0
11.092639620 271.0
11.103506060 230.0
11.114372500 257.0
11.125238940 265.0
11.136105380 256.0
11.146971820 263.0
11.157838260 256.0
11.168704700 243.0
11.179571140 233.0
11.190437580 246.0
11.201304020 238.0
11.212170460 228.0
11.223036900 241.0
11.233903340 247.0
11.244769780 257.0
11.255636220 233.0
11.266502660 241.0
11.277369100 268.0
11.288235540 286.0
11.299101980 244.0
11.309968420 242.0
11.320834860 234.0
11.331701300 266.0
11.342567740 229.0
11.353434180 259.0
11.364300620 261.0
11.375167060 248.0
11.386033500 258.0
11.396899940 234.0
11.407766380 238.0
11.418632820 250.0
11.429499260 241.0
11.440365700 246.0
11.451232140 244.0
11.462098580 261.0
11.472965020 241.0
11.483831460 246.0
11.494697900 258.0
11.505564340 229.0
11.516430780 219.0
11.527297220 269.0
11.538163660 226.0
11.549030100 236.0
11.559896540 250.0
11.570762980 235.0
11.581629420 278.0
11.592495860 242.0
11.603362300 230.0
11.614228740 228.0
11.625095180 237.0
11.635961620 235.0
11.646828060 290.0
11.657694500 260.0
11.668560940 246.0
11.679427380 232.0
11.690293820 265.0
11.701160260 222.0
11.712026700 230.0
11.722893140 230.0
11.733759580 234.0
11.744626020 241.0
11.755492460 232.0
11.766358900 239.0
11.777225340 236.0
11.788091780 246.0
11.798958220 238.0
11.809824660 261.0
11.820691100 227.0
11.831557540 226.0
11.842423980 282.0
11.853290420 233.0
11.864156860 256.0
11.875023300 241.0
11.885889740 240.0
11.896756180 250.0
11.907622620 231.0
11.918489060 237.0
11.929355500 223.0
11.940221940 246.0
11.951088380 273.0
11.961954820 234.0
11.972821260 246.0
11.983687700 243.0
11.994554140 224.0
12.005420580 244.0
12.016287020 229.0
12.027153460 244.0
12.038019900 238.0
12.048886340 215.0
12.059752780 234.0
12.070619220 228.0
12.081485660 258.0
12.092352100 233.0
12.103218540 258.0
12.114084980 243.0
12.124951420 243.0
12.135817860 233.0
12.146684300 262.0
12.157550740 224.0
12.168417180 250.0
12.179283620 256.0
12.190150060 271.0
12.201016500 264.0
12.211882940 241.0
12.222749380 227.0
12.233615820 242.0
12.244482260 242.0
12.255348700 226.0
12.266215140 262.0
12.277081580 246.0
12.287948020 276.0
12.298814460 247.0
12.309680900 257.0
12.320547340 272.0
12.331413780 243.0
12.342280220 228.0
12.353146660 236.0
12.364013100 267.0
12.374879540 250.0
12.385745980 287.0
12.396612420 257.0
12.407478860 238.0
12.418345300 236.0
12.429211740 272.0
12.440078180 276.0
12.450944620 266.0
12.461811060 247.0
12.472677500 225.0
12.483543940 237.0
12.494410380 271.0
12.505276820 268.0
12.516143260 249.0
12.527009700 273.0
12.537876140 262.0
12.548742580 279.0
12.559609020 240.0
12.570475460 249.0
12.581341900 219.0
12.592208340 267.0
12.603074780 263.0
12.613941220 289.0
12.624807660 234.0
12.635674100 242.0
12.646540540 268.0
12.657406980 239.0
12.668273420 261.0
12.679139860 245.0
12.690006300 291.0
12.700872740 267.0
12.711739180 238.0
12.722605620 287.0
12.733472060 276.0
12.744338500 269.0
12.755204940 289.0
12.766071380 247.0
12.776937820 270.0
12.787804260 260.0
12.798670700 259.0
12.809537140 280.0
12.820403580 264.0
12.831270020 245.0
12.842136460 242.0
12.853002900 266.0
12.863869340 230.0
12.874735780 264.0
12.885602220 273.0
12.896468660 268.0
12.907335100 268.0
12.918201540 276.0
12.929067980 266.0
12.939934420 285.0
12.950800860 258.0
12.961667300 247.0
12.972533740 245.0
12.983400180 260.0
12.994266620 239.0
13.005133060 245.0
13.015999500 248.0
13.026865940 234.0
13.037732380 232.0
13.048598820 281.0
13.059465260 278.0
13.070331700 230.0
13.081198140 242.0
13.092064580 243.0
13.102931020 265.0
13.113797460 232.0
13.124663900 263.0
13.135530340 261.0
13.146396780 229.0
13.157263220 260.0
13.168129660 241.0
13.178996100 246.0
13.189862540 284.0
13.200728980 276.0
13.211595420 269.0
13.222461860 270.0
13.233328300 231.0
13.244194740 275.0
13.255061180 261.0
13.265927620 260.0
13.276794060 226.0
13.287660500 235.0
13.298526940 247.0
13.309393380 243.0
13.320259820 261.0
13.331126260 264.0
13.341992700 283.0
13.352859140 241.0
13.363725580 224.0
13.374592020 238.0
13.385458460 295.0
13.396324900 236.0
13.407191340 274.0
13.418057780 268.0
13.428924220 238.0
13.439790660 288.0
13.450657100 265.0
13.461523540 256.0
13.472389980 262.0
13.483256420 241.0
13.494122860 263.0
13.504989300 262.0
13.515855740 272.0
13.526722180 269.0
13.537588620 246.0
13.548455060 256.0
13.559321500 266.0
13.570187940 221.0
13.581054380 261.0
13.591920820 246.0
13.602787260 279.0
13.613653700 249.0
13.624520140 263.0
13.635386580 297.0
13.646253020 277.0
13.657119460 285.0
13.667985900 289.0
13.678852340 243.0
13.689718780 238.0
13.700585220 234.0
13.711451660 271.0
13.722318100 273.0
13.733184540 237.0
13.744050980 257.0
13.754917420 246.0
13.765783860 277.0
13.776650300 263.0
13.787516740 246.0
13.798383180 268.0
13.809249620 270.0
13.820116060 262.0
13.830982500 221.0
13.841848940 232.0
13.852715380 261.0
13.863581820 233.0
13.874448260 236.0
13.885314700 275.0
13.896181140 243.0
13.907047580 260.0
13.917914020 233.0
13.928780460 246.0
13.939646900 267.0
13.950513340 233.0
13.961379780 248.0
13.972246220 249.0
13.983112660 266.0
13.993979100 256.0
14.004845540 220.0
14.015711980 241.0
14.026578420 246.0
14.037444860 243.0
14.048311300 264.0
14.059177740 269.0
14.070044180 221.0
14.080910620 256.0
14.091777060 227.0
14.102643500 273.0
14.113509940 227.0
14.124376380 245.0
14.135242820 267.0
14.146109260 250.0
14.156975700 238.0
14.167842140 238.0
14.178708580 273.0
14.189575020 235.0
14.200441460 247.0
14.211307900 240.0
14.222174340 239.0
14.233040780 245.0
14.243907220 246.0
14.254773660 250.0
14.265640100 235.0
14.276506540 273.0
14.287372980 260.0
14.298239420 205.0
14.309105860 246.0
14.319972300 284.0
14.330838740 246.0
14.341705180 238.0
14.352571620 270.0
14.363438060 236.0
14.374304500 227.0
14.385170940 265.0
14.396037380 231.0
14.406903820 260.0
14.417770260 273.0
14.428636700 262.0
14.439503140 242.0
14.450369580 264.0
14.461236020 265.0
14.472102460 224.0
14.482968900 234.0
14.493835340 261.0
14.504701780 242.0
14.515568220 222.0
14.526434660 233.0
14.537301100 234.0
14.548167540 258.0
14.559033980 233.0
14.569900420 282.0
14.580766860 249.0
14.591633300 241.0
14.602499740 270.0
14.613366180 271.0
14.624232620 238.0
14.635099060 247.0
14.645965500 259.0
14.656831940 293.0
14.667698380 236.0
14.678564820 276.0
14.689431260 270.0
14.700297700 283.0
14.711164140 262.0
14.722030580 266.0
14.732897020 283.0
14.743763460 278.0
14.754629900 221.0
14.765496340 230.0
14.776362780 262.0
14.787229220 264.0
14.798095660 279.0
14.808962100 229.0
14.819828540 244.0
14.830694980 264.0
14.841561420 264.0
14.852427860 261.0
14.863294300 260.0
14.874160740 244.0
14.885027180 260.0
14.895893620 240.0
14.906760060 240.0
14.917626500 269.0
14.928492940 231.0
14.939359380 271.0
14.950225820 273.0
14.961092260 262.0
14.971958700 285.0
14.982825140 267.0
14.993691580 233.0
15.004558020 246.0
15.015424460 239.0
15.026290900 259.0
15.037157340 238.0
15.048023780 234.0
15.058890220 267.0
15.069756660 286.0
15.080623100 269.0
15.091489540 234.0
15.102355980 266.0
15.113222420 237.0
15.124088860 302.0
15.134955300 236.0
15.145821740 246.0
15.156688180 218.0
15.167554620 247.0
15.178421060 271.0
15.189287500 269.0
15.200153940 286.0
15.211020380 263.0
15.221886820 269.0
15.232753260 249.0
15.243619700 250.0
15.254486140 243.0
15.265352580 247.0
15.276219020 259.0
15.287085460 221.0
15.297951900 258.0
15.308818340 229.0
15.319684780 247.0
15.330551220 242.0
15.341417660 235.0
15.352284100 225.0
15.363150540 263.0
15.374016980 229.0
15.384883420 243.0
15.395749860 235.0
15.406616300 231.0
15.417482740 235.0
15.428349180 245.0
15.439215620 268.0
15.450082060 232.0
15.460948500 224.0
15.471814940 261.0
15.482681380 267.0
15.493547820 256.0
15.504414260 241.0
15.515280700 263.0
15.526147140 232.0
15.537013580 262.0
15.547880020 235.0
15.558746460 228.0
15.569612900 222.0
15.580479340 267.0
15.591345780 240.0
15.602212220 257.0
15.613078660 307.0
15.623945100 233.0
15.634811540 274.0
15.645677980 261.0
15.656544420 240.0
15.667410860 219.0
15.678277300 242.0
15.689143740 225.0
15.700010180 292.0
15.710876620 242.0
15.721743060 267.0
15.732609500 269.0
15.743475940 223.0
15.754342380 263.0
15.765208820 244.0
15.776075260 273.0
15.786941700 246.0
15.797808140 257.0
15.808674580 270.0
15.819541020 224.0
15.830407460 232.0
15.841273900 231.0
15.852140340 216.0
15.863006780 225.0
15.873873220 263.0
15.884739660 226.0
15.895606100 234.0
15.906472540 268.0
15.917338980 223.0
15.928205420 257.0
15.939071860 222.0
15.949938300 238.0
15.960804740 239.0
15.971671180 256.0
15.982537620 226.0
15.993404060 224.0
16.004270500 221.0
16.015136940 226.0
16.026003380 231.0
16.036869820 241.0
16.047736260 278.0
16.058602700 221.0
16.069469140 224.0
16.080335580 224.0
16.091202020 221.0
16.102068460 250.0
16.112934900 279.0
16.123801340 231.0
16.134667780 262.0
16.145534220 214.0
16.156400660 268.0
16.167267100 273.0
16.178133540 261.0
16.188999980 248.0
16.199866420 241.0
16.210732860 231.0
16.221599300 205.0
16.232465740 235.0
16.243332180 236.0
16.254198620 234.0
16.265065060 239.0
16.275931500 226.0
16.286797940 223.0
16.297664380 276.0
16.308530820 229.0
16.319397260 242.0
16.330263700 236.0
16.341130140 224.0
16.351996580 232.0
16.362863020 227.0
16.373729460 204.0
16.384595900 251.0
16.395462340 241.0
16.406328780 232.0
16.417195220 235.0
16.428061660 211.0
16.438928100 233.0
16.449794540 228.0
16.460660980 228.0
16.471527420 232.0
16.482393860 245.0
16.493260300 245.0
16.504126740 219.0
16.514993180 220.0
16.525859620 220.0
16.536726060 227.0
16.547592500 219.0
16.558458940 244.0
16.569325380 213.0
16.580191820 213.0
16.591058260 237.0
16.601924700 220.0
16.612791140 231.0
16.623657580 244.0
16.634524020 233.0
16.645390460 207.0
16.656256900 229.0
16.667123340 214.0
16.677989780 239.0
16.688856220 232.0
16.699722660 229.0
16.710589100 203.0
16.721455540 241.0
16.732321980 210.0
16.743188420 224.0
16.754054860 256.0
16.764921300 249.0
16.775787740 234.0
16.786654180 212.0
16.797520620 200.0
16.808387060 224.0
16.819253500 247.0
16.830119940 250.0
16.840986380 236.0
16.851852820 225.0
16.862719260 216.0
16.873585700 261.0
16.884452140 260.0
16.895318580 219.0
16.906185020 240.0
16.917051460 228.0
16.927917900 207.0
16.938784340 203.0
16.949650780 211.0
16.960517220 222.0
16.971383660 232.0
16.982250100 233.0
16.993116540 212.0
17.003982980 199.0
17.014849420 246.0
17.025715860 210.0
17.036582300 194.0
17.047448740 205.0
17.058315180 211.0
17.069181620 225.0
17.080048060 224.0
17.090914500 226.0
17.101780940 224.0
17.112647380 234.0
17.123513820 240.0
17.134380260 230.0
17.145246700 238.0
17.156113140 230.0
17.166979580 242.0
17.177846020 228.0
17.188712460 246.0
17.199578900 205.0
17.210445340 227.0
17.221311780 233.0
17.232178220 227.0
17.243044660 230.0
17.253911100 222.0
17.264777540 228.0
17.275643980 216.0
17.286510420 212.0
17.297376860 204.0
17.308243300 250.0
17.319109740 221.0
17.329976180 228.0
17.340842620 245.0
17.351709060 226.0
17.362575500 218.0
17.373441940 218.0
17.384308380 232.0
17.395174820 234.0
17.406041260 262.0
17.416907700 225.0
17.427774140 235.0
17.438640580 220.0
17.449507020 223.0
17.460373460 236.0
17.471239900 259.0
17.482106340 236.0
17.492972780 206.0
17.503839220 209.0
17.514705660 224.0
17.525572100 222.0
17.536438540 240.0
17.547304980 229.0
17.558171420 214.0
17.569037860 207.0
17.579904300 230.0
17.590770740 244.0
17.601637180 269.0
17.612503620 197.0
17.623370060 225.0
17.634236500 209.0
17.645102940 238.0
17.655969380 216.0
17.666835820 231.0
17.677702260 216.0
17.688568700 241.0
17.699435140 225.0
17.710301580 225.0
17.721168020 225.0
17.732034460 243.0
17.742900900 238.0
17.753767340 241.0
17.764633780 207.0
17.775500220 224.0
17.786366660 260.0
17.797233100 216.0
17.808099540 236.0
17.818965980 229.0
17.829832420 208.0
17.840698860 213.0
17.851565300 238.0
17.862431740 241.0
17.873298180 233.0
17.884164620 234.0
17.895031060 223.0
17.905897500 231.0
17.916763940 214.0
17.927630380 251.0
17.938496820 228.0
17.949363260 240.0
17.960229700 232.0
17.971096140 218.0
17.981962580 229.0
17.992829020 208.0
18.003695460 239.0
18.014561900 203.0
18.025428340 266.0
18.036294780 241.0
18.047161220 213.0
18.058027660 226.0
18.068894100 240.0
18.079760540 207.0
18.090626980 250.0
18.101493420 245.0
18.112359860 242.0
18.123226300 220.0
18.134092740 220.0
18.144959180 245.0
18.155825620 195.0
18.166692060 211.0
18.177558500 211.0
18.188424940 210.0
18.199291380 228.0
18.210157820 240.0
18.221024260 248.0
18.231890700 232.0
18.242757140 210.0
18.253623580 228.0
18.264490020 221.0
18.275356460 211.0
18.286222900 213.0
18.297089340 242.0
18.307955780 238.0
18.318822220 244.0
18.329688660 270.0
18.340555100 216.0
18.351421540 238.0
18.362287980 242.0
18.373154420 223.0
18.384020860 214.0
18.394887300 249.0
18.405753740 216.0
18.416620180 210.0
18.427486620 236.0
18.438353060 227.0
18.449219500 224.0
18.460085940 246.0
18.470952380 218.0
18.481818820 206.0
18.492685260 226.0
18.503551700 214.0
18.514418140 191.0
18.525284580 230.0
18.536151020 214.0
18.547017460 245.0
18.557883900 203.0
18.568750340 263.0
18.579616780 230.0
18.590483220 226.0
18.601349660 223.0
18.612216100 211.0
18.623082540 246.0
18.633948980 211.0
18.644815420 265.0
18.655681860 249.0
18.666548300 229.0
18.677414740 211.0
18.688281180 210.0
18.699147620 224.0
18.710014060 210.0
18.720880500 228.0
18.731746940 219.0
18.742613380 217.0
18.753479820 202.0
18.764346260 226.0
18.775212700 216.0
18.786079140 206.0
18.796945580 205.0
18.807812020 232.0
18.818678460 234.0
18.829544900 200.0
18.840411340 203.0
18.851277780 218.0
18.862144220 247.0
18.873010660 224.0
18.883877100 219.0
18.894743540 213.0
18.905609980 225.0
18.916476420 235.0
18.927342860 246.0
18.938209300 218.0
18.949075740 243.0
18.959942180 213.0
18.970808620 230.0
18.981675060 202.0
18.992541500 228.0
19.003407940 207.0
19.014274380 250.0
19.025140820 231.0
19.036007260 191.0
19.046873700 217.0
19.057740140 220.0
19.068606580 235.0
19.079473020 223.0
19.090339460 212.0
19.101205900 201.0
19.112072340 216.0
19.122938780 243.0
19.133805220 249.0
19.144671660 216.0
19.155538100 233.0
19.166404540 229.0
19.177270980 243.0
19.188137420 222.0
19.199003860 220.0
19.209870300 236.0
19.220736740 216.0
19.231603180 208.0
19.242469620 188.0
19.253336060 233.0
19.264202500 230.0
19.275068940 218.0
19.285935380 234.0
19.296801820 212.0
19.307668260 227.0
19.318534700 209.0
19.329401140 217.0
19.340267580 238.0
19.351134020 235.0
19.362000460 208.0
19.372866900 192.0
19.383733340 238.0
19.394599780 238.0
19.405466220 219.0
19.416332660 191.0
19.427199100 201.0
19.438065540 189.0
19.448931980 245.0
19.459798420 201.0
19.470664860 256.0
19.481531300 215.0
19.492397740 221.0
19.503264180 214.0
19.514130620 220.0
19.524997060 215.0
19.535863500 221.0
19.546729940 248.0
19.557596380 231.0
19.568462820 203.0
19.579329260 240.0
19.590195700 225.0
19.601062140 194.0
19.611928580 239.0
19.622795020 229.0
19.633661460 228.0
19.644527900 225.0
19.655394340 221.0
19.666260780 233.0
19.677127220 211.0
19.687993660 209.0
19.698860100 189.0
19.709726540 251.0
19.720592980 227.0
19.731459420 213.0
19.742325860 235.0
19.753192300 196.0
19.764058740 212.0
19.774925180 206.0
19.785791620 240.0
19.796658060 240.0
19.807524500 207.0
19.818390940 209.0
19.829257380 245.0
19.840123820 217.0
19.850990260 257.0
19.861856700 181.0
19.872723140 259.0
19.883589580 210.0
19.894456020 219.0
19.905322460 217.0
19.916188900 224.0
19.927055340 211.0
19.937921780 227.0
19.948788220 220.0
19.959654660 230.0
19.970521100 223.0
19.981387540 214.0
19.992253980 213.0
20.003120420 233.0
20.013986860 219.0
20.024853300 222.0
20.035719740 217.0
20.046586180 217.0
20.057452620 220.0
20.068319060 245.0
20.079185500 226.0
20.090051940 212.0
20.100918380 213.0
20.111784820 210.0
20.122651260 229.0
20.133517700 212.0
20.144384140 210.0
20.155250580 216.0
20.166117020 202.0
20.176983460 220.0
20.187849900 216.0
20.198716340 203.0
20.209582780 224.0
20.220449220 229.0
20.231315660 236.0
20.242182100 230.0
20.253048540 229.0
20.263914980 200.0
20.274781420 247.0
20.285647860 204.0
20.296514300 212.0
20.307380740 222.0
20.318247180 219.0
20.329113620 224.0
20.339980060 209.0
20.350846500 245.0
20.361712940 218.0
20.372579380 194.0
20.383445820 213.0
20.394312260 242.0
20.405178700 234.0
20.416045140 238.0
20.426911580 236.0
20.437778020 208.0
20.448644460 220.0
20.459510900 234.0
20.470377340 202.0
20.481243780 219.0
20.492110220 219.0
20.502976660 212.0
20.513843100 215.0
20.524709540 203.0
20.535575980 205.0
20.546442420 237.0
20.557308860 241.0
20.568175300 270.0
20.579041740 221.0
20.589908180 222.0
20.600774620 238.0
20.611641060 232.0
20.622507500 226.0
20.633373940 208.0
20.644240380 203.0
20.655106820 215.0
20.665973260 220.0
20.676839700 214.0
20.687706140 218.0
20.698572580 237.0
20.709439020 210.0
20.720305460 228.0
20.731171900 219.0
20.742038340 221.0
20.752904780 232.0
20.763771220 224.0
20.774637660 189.0
20.785504100 245.0
20.796370540 230.0
20.807236980 237.0
20.818103420 202.0
20.828969860 221.0
20.839836300 209.0
20.850702740 238.0
20.861569180 194.0
20.872435620 210.0
20.883302060 244.0
20.894168500 237.0
20.905034940 206.0
20.915901380 215.0
20.926767820 211.0
20.937634260 223.0
20.948500700 244.0
20.959367140 210.0
20.970233580 236.0
20.981100020 226.0
20.991966460 234.0
21.002832900 237.0
21.013699340 216.0
21.024565780 237.0
21.035432220 216.0
21.046298660 217.0
21.057165100 205.0
21.068031540 242.0
21.078897980 212.0
21.089764420 233.0
21.100630860 192.0
21.111497300 204.0
21.122363740 244.0
21.133230180 222.0
21.144096620 227.0
21.154963060 227.0
21.165829500 237.0
21.176695940 222.0
21.187562380 215.0
21.198428820 205.0
21.209295260 206.0
21.220161700 212.0
21.231028140 213.0
21.241894580 203.0
21.252761020 256.0
21.263627460 188.0
21.274493900 235.0
21.285360340 209.0
21.296226780 223.0
21.307093220 225.0
21.317959660 204.0
21.328826100 225.0
21.339692540 209.0
21.350558980 225.0
21.361425420 215.0
21.372291860 218.0
21.383158300 222.0
21.394024740 212.0
21.404891180 240.0
21.415757620 209.0
21.426624060 210.0
21.437490500 262.0
21.448356940 221.0
21.459223380 236.0
21.470089820 231.0
21.480956260 224.0
21.491822700 229.0
21.502689140 201.0
21.513555580 217.0
21.524422020 218.0
21.535288460 183.0
21.546154900 205.0
21.557021340 242.0
21.567887780 188.0
21.578754220 257.0
21.589620660 236.0
21.600487100 237.0
21.611353540 232.0
21.622219980 218.0
21.633086420 209.0
21.643952860 205.0
21.654819300 218.0
21.665685740 225.0
21.676552180 261.0
21.687418620 217.0
21.698285060 243.0
21.709151500 211.0
21.720017940 239.0
21.730884380 224.0
21.741750820 225.0
21.752617260 246.0
21.763483700 195.0
21.774350140 208.0
21.785216580 209.0
21.796083020 200.0
21.806949460 222.0
21.817815900 204.0
21.828682340 180.0
21.839548780 224.0
21.850415220 256.0
21.861281660 194.0
21.872148100 215.0
21.883014540 214.0
21.893880980 234.0
21.904747420 227.0
21.915613860 262.0
21.926480300 219.0
21.937346740 234.0
21.948213180 217.0
21.959079620 207.0
21.969946060 223.0
21.980812500 230.0
21.991678940 247.0
22.002545380 221.0
22.013411820 229.0
22.024278260 222.0
22.035144700 234.0
22.046011140 269.0
22.056877580 223.0
22.067744020 237.0
22.078610460 225.0
22.089476900 205.0
22.100343340 227.0
22.111209780 191.0
22.122076220 215.0
22.132942660 231.0
22.143809100 219.0
22.154675540 208.0
22.165541980 240.0
22.176408420 195.0
22.187274860 243.0
22.198141300 210.0
22.209007740 216.0
22.219874180 194.0
22.230740620 233.0
22.241607060 241.0
22.252473500 224.0
22.263339940 214.0
22.274206380 205.0
22.285072820 224.0
22.295939260 231.0
22.306805700 203.0
22.317672140 208.0
22.328538580 209.0
22.339405020 210.0
22.350271460 230.0
22.361137900 236.0
22.372004340 218.0
22.382870780 257.0
22.393737220 230.0
22.404603660 228.0
22.415470100 222.0
22.426336540 232.0
22.437202980 214.0
22.448069420 237.0
22.458935860 225.0
22.469802300 203.0
22.480668740 215.0
22.491535180 241.0
22.502401620 216.0
22.513268060 225.0
22.524134500 244.0
22.535000940 196.0
22.545867380 233.0
22.556733820 228.0
22.567600260 214.0
22.578466700 260.0
22.589333140 232.0
22.600199580 265.0
22.611066020 226.0
22.621932460 259.0
22.632798900 216.0
22.643665340 199.0
22.654531780 197.0
22.665398220 194.0
22.676264660 218.0
22.687131100 194.0
22.697997540 199.0
22.708863980 221.0
22.719730420 197.0
22.730596860 210.0
22.741463300 220.0
22.752329740 207.0
22.763196180 217.0
22.774062620 219.0
22.784929060 211.0
22.795795500 210.0
22.806661940 217.0
22.817528380 214.0
22.828394820 208.0
22.839261260 212.0
22.850127700 212.0
22.860994140 203.0
22.871860580 213.0
22.882727020 211.0
22.893593460 216.0
22.904459900 223.0
22.915326340 197.0
22.926192780 203.0
22.937059220 202.0
22.947925660 197.0
22.958792100 218.0
22.969658540 223.0
22.980524980 214.0
22.991391420 214.0
23.002257860 210.0
23.013124300 212.0
23.023990740 214.0
23.034857180 230.0
23.045723620 197.0
23.056590060 235.0
23.067456500 236.0
23.078322940 227.0
23.089189380 222.0
23.100055820 224.0
23.110922260 208.0
23.121788700 198.0
23.132655140 232.0
23.143521580 213.0
23.154388020 211.0
23.165254460 225.0
23.176120900 223.0
23.186987340 205.0
23.197853780 237.0
23.208720220 211.0
23.219586660 219.0
23.230453100 212.0
23.241319540 216.0
23.252185980 224.0
23.263052420 209.0
23.273918860 210.0
23.284785300 243.0
23.295651740 224.0
23.306518180 245.0
23.317384620 216.0
23.328251060 232.0
23.339117500 241.0
23.349983940 198.0
23.360850380 234.0
23.371716820 240.0
23.382583260 209.0
23.393449700 228.0
23.404316140 209.0
23.415182580 227.0
23.426049020 239.0
23.436915460 214.0
23.447781900 217.0
23.458648340 225.0
23.469514780 215.0
23.480381220 232.0
23.491247660 206.0
23.502114100 224.0
23.512980540 215.0
23.523846980 209.0
23.534713420 229.0
23.545579860 227.0
23.556446300 217.0
23.567312740 213.0
23.578179180 232.0
23.589045620 232.0
23.599912060 216.0
23.610778500 250.0
23.621644940 229.0
23.632511380 207.0
23.643377820 214.0
23.654244260 216.0
23.665110700 238.0
23.675977140 210.0
23.686843580 222.0
23.697710020 219.0
23.708576460 224.0
23.719442900 223.0
23.730309340 201.0
23.741175780 223.0
23.752042220 226.0
23.762908660 229.0
23.773775100 235.0
23.784641540 213.0
23.795507980 208.0
23.806374420 239.0
23.817240860 214.0
23.828107300 220.0
23.838973740 210.0
23.849840180 202.0
23.860706620 247.0
23.871573060 230.0
23.882439500 219.0
23.893305940 214.0
23.904172380 223.0
23.915038820 257.0
23.925905260 211.0
23.936771700 217.0
23.947638140 217.0
23.958504580 234.0
23.969371020 205.0
23.980237460 219.0
23.991103900 208.0
24.001970340 188.0
24.012836780 211.0
24.023703220 218.0
24.034569660 209.0
24.045436100 259.0
24.056302540 212.0
24.067168980 222.0
24.078035420 236.0
24.088901860 243.0
24.099768300 213.0
24.110634740 212.0
24.121501180 226.0
24.132367620 225.0
24.143234060 222.0
24.154100500 218.0
24.164966940 219.0
24.175833380 200.0
24.186699820 220.0
24.197566260 224.0
24.208432700 206.0
24.219299140 259.0
24.230165580 247.0
24.241032020 238.0
24.251898460 234.0
24.262764900 204.0
24.273631340 233.0
24.284497780 224.0
24.295364220 230.0
24.306230660 214.0
24.317097100 226.0
24.327963540 280.0
24.338829980 247.0
24.349696420 220.0
24.360562860 242.0
24.371429300 207.0
24.382295740 213.0
24.393162180 200.0
24.404028620 235.0
24.414895060 231.0
24.425761500 233.0
24.436627940 215.0
24.447494380 242.0
24.458360820 228.0
24.469227260 245.0
24.480093700 245.0
24.490960140 220.0
24.501826580 245.0
24.512693020 257.0
24.523559460 248.0
24.534425900 236.0
24.545292340 223.0
24.556158780 233.0
24.567025220 256.0
24.577891660 230.0
24.588758100 221.0
24.599624540 227.0
24.610490980 264.0
24.621357420 244.0
24.632223860 222.0
24.643090300 246.0
24.653956740 228.0
24.664823180 256.0
24.675689620 271.0
24.686556060 229.0
24.697422500 257.0
24.708288940 280.0
24.719155380 238.0
24.730021820 272.0
24.740888260 260.0
24.751754700 232.0
24.762621140 289.0
24.773487580 249.0
24.784354020 259.0
24.795220460 256.0
24.806086900 282.0
24.816953340 296.0
24.827819780 271.0
24.838686220 251.0
24.849552660 295.0
24.860419100 286.0
24.871285540 263.0
24.882151980 257.0
24.893018420 319.0
24.903884860 288.0
24.914751300 295.0
24.925617740 301.0
24.936484180 289.0
24.947350620 300.0
24.958217060 297.0
24.969083500 305.0
24.979949940 312.0
24.990816380 297.0
25.001682820 308.0
25.012549260 333.0
25.023415700 303.0
25.034282140 368.0
25.045148580 307.0
25.056015020 342.0
25.066881460 333.0
25.077747900 364.0
25.088614340 354.0
25.099480780 346.0
25.110347220 381.0
25.121213660 321.0
25.132080100 374.0
25.142946540 392.0
25.153812980 412.0
25.164679420 390.0
25.175545860 408.0
25.186412300 399.0
25.197278740 430.0
25.208145180 399.0
25.219011620 443.0
25.229878060 443.0
25.240744500 453.0
25.251610940 481.0
25.262477380 428.0
25.273343820 516.0
25.284210260 470.0
25.295076700 481.0
25.305943140 468.0
25.316809580 509.0
25.327676020 511.0
25.338542460 565.0
25.349408900 605.0
25.360275340 538.0
25.371141780 583.0
25.382008220 595.0
25.392874660 543.0
25.403741100 587.0
25.414607540 617.0
25.425473980 641.0
25.436340420 633.0
25.447206860 591.0
25.458073300 686.0
25.468939740 655.0
25.479806180 645.0
25.490672620 670.0
25.501539060 659.0
25.512405500 653.0
25.523271940 731.0
25.534138380 655.0
25.545004820 705.0
25.555871260 675.0
25.566737700 739.0
25.577604140 707.0
25.588470580 682.0
25.599337020 670.0
25.610203460 748.0
25.621069900 713.0
25.631936340 698.0
25.642802780 717.0
25.653669220 732.0
25.664535660 741.0
25.675402100 719.0
25.686268540 623.0
25.697134980 714.0
25.708001420 625.0
25.718867860 644.0
25.729734300 675.0
25.740600740 681.0
25.751467180 626.0
25.762333620 662.0
25.773200060 634.0
25.784066500 660.0
25.794932940 634.0
25.805799380 591.0
25.816665820 561.0
25.827532260 627.0
25.838398700 613.0
25.849265140 570.0
25.860131580 534.0
25.870998020 534.0
25.881864460 512.0
25.892730900 562.0
25.903597340 554.0
25.914463780 505.0
25.925330220 489.0
25.936196660 466.0
25.947063100 458.0
25.957929540 468.0
25.968795980 458.0
25.979662420 475.0
25.990528860 463.0
26.001395300 392.0
26.012261740 411.0
26.023128180 424.0
26.033994620 408.0
26.044861060 429.0
26.055727500 408.0
26.066593940 373.0
26.077460380 372.0
26.088326820 396.0
26.099193260 369.0
26.110059700 354.0
26.120926140 391.0
26.131792580 366.0
26.142659020 317.0
26.153525460 373.0
26.164391900 369.0
26.175258340 346.0
26.186124780 335.0
26.196991220 343.0
26.207857660 296.0
26.218724100 317.0
26.229590540 333.0
26.240456980 317.0
26.251323420 245.0
26.262189860 282.0
26.273056300 304.0
26.283922740 277.0
26.294789180 302.0
26.305655620 275.0
26.316522060 287.0
26.327388500 284.0
26.338254940 292.0
26.349121380 285.0
26.359987820 275.0
26.370854260 284.0
26.381720700 300.0
26.392587140 277.0
26.403453580 323.0
26.414320020 295.0
26.425186460 265.0
26.436052900 269.0
26.446919340 286.0
26.457785780 264.0
26.468652220 224.0
26.479518660 249.0
26.490385100 260.0
26.501251540 265.0
26.512117980 232.0
26.522984420 263.0
26.533850860 260.0
26.544717300 211.0
26.555583740 245.0
26.566450180 247.0
26.577316620 266.0
26.588183060 262.0
26.599049500 217.0
26.609915940 231.0
26.620782380 212.0
26.631648820 259.0
26.642515260 215.0
26.653381700 226.0
26.664248140 244.0
26.675114580 218.0
26.685981020 249.0
26.696847460 224.0
26.707713900 226.0
26.718580340 242.0
26.729446780 273.0
26.740313220 263.0
26.751179660 239.0
26.762046100 230.0
26.772912540 275.0
26.783778980 212.0
26.794645420 236.0
26.805511860 222.0
26.816378300 196.0
26.827244740 241.0
26.838111180 216.0
26.848977620 180.0
26.859844060 240.0
26.870710500 191.0
26.881576940 212.0
26.892443380 217.0
26.903309820 222.0
26.914176260 236.0
26.925042700 221.0
26.935909140 188.0
26.946775580 205.0
26.957642020 229.0
26.968508460 224.0
26.979374900 211.0
26.990241340 211.0
27.001107780 228.0
27.011974220 227.0
27.022840660 209.0
27.033707100 264.0
27.044573540 233.0
27.055439980 195.0
27.066306420 218.0
27.077172860 209.0
27.088039300 219.0
27.098905740 196.0
27.109772180 215.0
27.120638620 206.0
27.131505060 212.0
27.142371500 208.0
27.153237940 216.0
27.164104380 224.0
27.174970820 212.0
27.185837260 208.0
27.196703700 225.0
27.207570140 195.0
27.218436580 181.0
27.229303020 209.0
27.240169460 231.0
27.251035900 240.0
27.261902340 212.0
27.272768780 236.0
27.283635220 198.0
27.294501660 190.0
27.305368100 192.0
27.316234540 208.0
27.327100980 186.0
27.337967420 174.0
27.348833860 221.0
27.359700300 213.0
27.370566740 210.0
27.381433180 225.0
27.392299620 211.0
27.403166060 206.0
27.414032500 192.0
27.424898940 204.0
27.435765380 203.0
27.446631820 256.0
27.457498260 196.0
27.468364700 220.0
27.479231140 229.0
27.490097580 216.0
27.500964020 240.0
27.511830460 228.0
27.522696900 194.0
27.533563340 211.0
27.544429780 214.0
27.555296220 221.0
27.566162660 169.0
27.577029100 206.0
27.587895540 221.0
27.598761980 225.0
27.609628420 209.0
27.620494860 186.0
27.631361300 218.0
27.642227740 224.0
27.653094180 218.0
27.663960620 223.0
27.674827060 232.0
27.685693500 185.0
27.696559940 227.0
27.707426380 199.0
27.718292820 201.0
27.729159260 233.0
27.740025700 191.0
27.750892140 193.0
27.761758580 226.0
27.772625020 202.0
27.783491460 213.0
27.794357900 228.0
27.805224340 201.0
27.816090780 218.0
27.826957220 211.0
27.837823660 180.0
27.848690100 201.0
27.859556540 209.0
27.870422980 182.0
27.881289420 188.0
27.892155860 192.0
27.903022300 191.0
27.913888740 202.0
27.924755180 202.0
27.935621620 196.0
27.946488060 205.0
27.957354500 192.0
27.968220940 213.0
27.979087380 203.0
27.989953820 199.0
28.000820260 201.0
28.011686700 209.0
28.022553140 208.0
28.033419580 219.0
28.044286020 205.0
28.055152460 179.0
28.066018900 196.0
28.076885340 214.0
28.087751780 211.0
28.098618220 195.0
28.109484660 227.0
28.120351100 194.0
28.131217540 183.0
28.142083980 213.0
28.152950420 188.0
28.163816860 203.0
28.174683300 226.0
28.185549740 213.0
28.196416180 206.0
28.207282620 204.0
28.218149060 183.0
28.229015500 221.0
28.239881940 189.0
28.250748380 183.0
28.261614820 209.0
28.272481260 211.0
28.283347700 185.0
28.294214140 231.0
28.305080580 188.0
28.315947020 207.0
28.326813460 204.0
28.337679900 198.0
28.348546340 215.0
28.359412780 188.0
28.370279220 216.0
28.381145660 190.0
28.392012100 203.0
28.402878540 215.0
28.413744980 194.0
28.424611420 182.0
28.435477860 214.0
28.446344300 210.0
28.457210740 221.0
28.468077180 187.0
28.478943620 200.0
28.489810060 193.0
28.500676500 191.0
28.511542940 213.0
28.522409380 202.0
28.533275820 194.0
28.544142260 193.0
28.555008700 200.0
28.565875140 209.0
28.576741580 201.0
28.587608020 168.0
28.598474460 181.0
28.609340900 191.0
28.620207340 188.0
28.631073780 204.0
28.641940220 196.0
28.652806660 232.0
28.663673100 202.0
28.674539540 184.0
28.685405980 216.0
28.696272420 199.0
28.707138860 219.0
28.718005300 166.0
28.728871740 219.0
28.739738180 197.0
28.750604620 217.0
28.761471060 223.0
28.772337500 187.0
28.783203940 199.0
28.794070380 175.0
28.804936820 195.0
28.815803260 198.0
28.826669700 186.0
28.837536140 205.0
28.848402580 200.0
28.859269020 186.0
28.870135460 220.0
28.881001900 187.0
28.891868340 206.0
28.902734780 183.0
28.913601220 178.0
28.924467660 221.0
28.935334100 192.0
28.946200540 176.0
28.957066980 184.0
28.967933420 185.0
28.978799860 224.0
28.989666300 174.0
29.000532740 182.0
29.011399180 184.0
29.022265620 207.0
29.033132060 193.0
29.043998500 196.0
29.054864940 200.0
29.065731380 182.0
29.076597820 200.0
29.087464260 192.0
29.098330700 172.0
29.109197140 181.0
29.120063580 205.0
29.130930020 194.0
29.141796460 183.0
29.152662900 193.0
29.163529340 170.0
29.174395780 199.0
29.185262220 161.0
29.196128660 181.0
29.206995100 196.0
29.217861540 208.0
29.228727980 215.0
29.239594420 201.0
29.250460860 190.0
29.261327300 190.0
29.272193740 191.0
29.283060180 199.0
29.293926620 206.0
29.304793060 204.0
29.315659500 184.0
29.326525940 181.0
29.337392380 194.0
29.348258820 198.0
29.359125260 210.0
29.369991700 206.0
29.380858140 190.0
29.391724580 201.0
29.402591020 206.0
29.413457460 158.0
29.424323900 195.0
29.435190340 176.0
29.446056780 196.0
29.456923220 233.0
29.467789660 190.0
29.478656100 193.0
29.489522540 203.0
29.500388980 171.0
29.511255420 228.0
29.522121860 181.0
29.532988300 200.0
29.543854740 193.0
29.554721180 158.0
29.565587620 171.0
29.576454060 206.0
29.587320500 168.0
29.598186940 193.0
29.609053380 202.0
29.619919820 187.0
29.630786260 207.0
29.641652700 196.0
29.652519140 192.0
29.663385580 205.0
29.674252020 177.0
29.685118460 171.0
29.695984900 168.0
29.706851340 187.0
29.717717780 140.0
29.728584220 210.0
29.739450660 174.0
29.750317100 151.0
29.761183540 189.0
29.772049980 183.0
29.782916420 190.0
29.793782860 162.0
29.804649300 180.0
29.815515740 193.0
29.826382180 182.0
29.837248620 186.0
29.848115060 186.0
29.858981500 187.0
29.869847940 188.0
29.880714380 186.0
29.891580820 179.0
29.902447260 203.0
29.913313700 174.0
29.924180140 194.0
29.935046580 171.0
29.945913020 179.0
29.956779460 205.0
29.967645900 171.0
29.978512340 185.0
29.989378780 188.0
30.000245220 207.0
30.011111660 196.0
30.021978100 167.0
30.032844540 186.0
30.043710980 163.0
30.054577420 218.0
30.065443860 171.0
30.076310300 192.0
30.087176740 185.0
30.098043180 225.0
30.108909620 198.0
30.119776060 165.0
30.130642500 177.0
30.141508940 177.0
30.152375380 189.0
30.163241820 205.0
30.174108260 185.0
30.184974700 183.0
30.195841140 194.0
30.206707580 190.0
30.217574020 195.0
30.228440460 174.0
30.239306900 201.0
30.250173340 189.0
30.261039780 223.0
30.271906220 173.0
30.282772660 170.0
30.293639100 203.0
30.304505540 189.0
30.315371980 177.0
30.326238420 175.0
30.337104860 196.0
30.347971300 213.0
30.358837740 207.0
30.369704180 196.0
30.380570620 200.0
30.391437060 168.0
30.402303500 184.0
30.413169940 186.0
30.424036380 207.0
30.434902820 200.0
30.445769260 181.0
30.456635700 182.0
30.467502140 183.0
30.478368580 161.0
30.489235020 190.0
30.500101460 172.0
30.510967900 207.0
30.521834340 167.0
30.532700780 194.0
30.543567220 182.0
30.554433660 162.0
30.565300100 191.0
30.576166540 174.0
30.587032980 189.0
30.597899420 190.0
30.608765860 167.0
30.619632300 184.0
30.630498740 230.0
30.641365180 216.0
30.652231620 221.0
30.663098060 192.0
30.673964500 171.0
30.684830940 195.0
30.695697380 189.0
30.706563820 166.0
30.717430260 188.0
30.728296700 197.0
30.739163140 174.0
30.750029580 189.0
30.760896020 172.0
30.771762460 200.0
30.782628900 189.0
30.793495340 192.0
30.804361780 181.0
30.815228220 183.0
30.826094660 174.0
30.836961100 213.0
30.847827540 201.0
30.858693980 183.0
30.869560420 202.0
30.880426860 182.0
30.891293300 179.0
30.902159740 207.0
30.913026180 193.0
30.923892620 187.0
30.934759060 197.0
30.945625500 194.0
30.956491940 194.0
30.967358380 184.0
30.978224820 193.0
30.989091260 187.0
30.999957700 160.0
31.010824140 192.0
31.021690580 171.0
31.032557020 186.0
31.043423460 170.0
31.054289900 203.0
31.065156340 207.0
31.076022780 171.0
31.086889220 186.0
31.097755660 168.0
31.108622100 171.0
31.119488540 171.0
31.130354980 176.0
31.141221420 194.0
31.152087860 196.0
31.162954300 190.0
31.173820740 165.0
31.184687180 176.0
31.195553620 187.0
31.206420060 193.0
31.217286500 205.0
31.228152940 160.0
31.239019380 185.0
31.249885820 201.0
31.260752260 199.0
31.271618700 184.0
31.282485140 186.0
31.293351580 149.0
31.304218020 201.0
31.315084460 200.0
31.325950900 186.0
31.336817340 185.0
31.347683780 178.0
31.358550220 213.0
31.369416660 185.0
31.380283100 198.0
31.391149540 179.0
31.402015980 206.0
31.412882420 180.0
31.423748860 190.0
31.434615300 175.0
31.445481740 199.0
31.456348180 201.0
31.467214620 220.0
31.478081060 204.0
31.488947500 207.0
31.499813940 186.0
31.510680380 183.0
31.521546820 199.0
31.532413260 183.0
31.543279700 153.0
31.554146140 172.0
31.565012580 192.0
31.575879020 198.0
31.586745460 176.0
31.597611900 193.0
31.608478340 162.0
31.619344780 181.0
31.630211220 215.0
31.641077660 210.0
31.651944100 190.0
31.662810540 181.0
31.673676980 203.0
31.684543420 184.0
31.695409860 181.0
31.706276300 189.0
31.717142740 176.0
31.728009180 209.0
31.738875620 189.0
31.749742060 214.0
31.760608500 140.0
31.771474940 189.0
31.782341380 196.0
31.793207820 186.0
31.804074260 196.0
31.814940700 187.0
31.825807140 206.0
31.836673580 187.0
31.847540020 186.0
31.858406460 195.0
31.869272900 189.0
31.880139340 181.0
31.891005780 191.0
31.901872220 186.0
31.912738660 165.0
31.923605100 205.0
31.934471540 176.0
31.945337980 198.0
31.956204420 187.0
31.967070860 178.0
31.977937300 177.0
31.988803740 196.0
31.999670180 172.0
32.010536620 160.0
32.021403060 186.0
32.032269500 191.0
32.043135940 210.0
32.054002380 209.0
32.064868820 178.0
32.075735260 157.0
32.086601700 170.0
32.097468140 167.0
32.108334580 170.0
32.119201020 204.0
32.130067460 169.0
32.140933900 184.0
32.151800340 178.0
32.162666780 166.0
32.173533220 180.0
32.184399660 198.0
32.195266100 186.0
32.206132540 193.0
32.216998980 192.0
32.227865420 188.0
32.238731860 195.0
32.249598300 208.0
32.260464740 167.0
32.271331180 158.0
32.282197620 181.0
32.293064060 176.0
32.303930500 186.0
32.314796940 167.0
32.325663380 160.0
32.336529820 188.0
32.347396260 188.0
32.358262700 186.0
32.369129140 192.0
32.379995580 178.0
32.390862020 178.0
32.401728460 176.0
32.412594900 177.0
32.423461340 180.0
32.434327780 184.0
32.445194220 178.0
32.456060660 181.0
32.466927100 173.0
32.477793540 187.0
32.488659980 186.0
32.499526420 183.0
32.510392860 166.0
32.521259300 192.0
32.532125740 180.0
32.542992180 188.0
32.553858620 172.0
32.564725060 188.0
32.575591500 181.0
32.586457940 173.0
32.597324380 168.0
32.608190820 186.0
32.619057260 193.0
32.629923700 142.0
32.640790140 220.0
32.651656580 188.0
32.662523020 183.0
32.673389460 177.0
32.684255900 192.0
32.695122340 186.0
32.705988780 189.0
32.716855220 188.0
32.727721660 191.0
32.738588100 183.0
32.749454540 207.0
32.760320980 217.0
32.771187420 167.0
32.782053860 194.0
32.792920300 174.0
32.803786740 201.0
32.814653180 157.0
32.825519620 199.0
32.836386060 180.0
32.847252500 182.0
32.858118940 165.0
32.868985380 186.0
32.879851820 169.0
32.890718260 185.0
32.901584700 168.0
32.912451140 212.0
32.923317580 207.0
32.934184020 172.0
32.945050460 189.0
32.955916900 171.0
32.966783340 166.0
32.977649780 178.0
32.988516220 174.0
32.999382660 174.0
33.010249100 194.0
33.021115540 146.0
33.031981980 186.0
33.042848420 180.0
33.053714860 163.0
33.064581300 199.0
33.075447740 191.0
33.086314180 179.0
33.097180620 176.0
33.108047060 191.0
33.118913500 175.0
33.129779940 183.0
33.140646380 227.0
33.151512820 192.0
33.162379260 182.0
33.173245700 195.0
33.184112140 193.0
33.194978580 204.0
33.205845020 170.0
33.216711460 179.0
33.227577900 176.0
33.238444340 182.0
33.249310780 164.0
33.260177220 155.0
33.271043660 178.0
33.281910100 176.0
33.292776540 151.0
33.303642980 184.0
33.314509420 175.0
33.325375860 152.0
33.336242300 200.0
33.347108740 180.0
33.357975180 180.0
33.368841620 215.0
33.379708060 181.0
33.390574500 176.0
33.401440940 166.0
33.412307380 185.0
33.423173820 171.0
33.434040260 189.0
33.444906700 190.0
33.455773140 163.0
33.466639580 170.0
33.477506020 185.0
33.488372460 182.0
33.499238900 173.0
33.510105340 150.0
33.520971780 165.0
33.531838220 179.0
33.542704660 180.0
33.553571100 195.0
33.564437540 173.0
33.575303980 197.0
33.586170420 195.0
33.597036860 180.0
33.607903300 170.0
33.618769740 177.0
33.629636180 175.0
33.640502620 163.0
33.651369060 180.0
33.662235500 184.0
33.673101940 171.0
33.683968380 153.0
33.694834820 174.0
33.705701260 177.0
33.716567700 177.0
33.727434140 184.0
33.738300580 204.0
33.749167020 194.0
33.760033460 207.0
33.770899900 170.0
33.781766340 176.0
33.792632780 184.0
33.803499220 188.0
33.814365660 193.0
33.825232100 148.0
33.836098540 182.0
33.846964980 200.0
33.857831420 186.0
33.868697860 159.0
33.879564300 210.0
33.890430740 199.0
33.901297180 166.0
33.912163620 214.0
33.923030060 182.0
33.933896500 177.0
33.944762940 183.0
33.955629380 179.0
33.966495820 193.0
33.977362260 167.0
33.988228700 180.0
33.999095140 199.0
34.009961580 189.0
34.020828020 169.0
34.031694460 172.0
34.042560900 182.0
34.053427340 178.0
34.064293780 178.0
34.075160220 194.0
34.086026660 176.0
34.096893100 171.0
34.107759540 189.0
34.118625980 189.0
34.129492420 174.0
34.140358860 172.0
34.151225300 162.0
34.162091740 180.0
34.172958180 168.0
34.183824620 162.0
34.194691060 174.0
34.205557500 184.0
34.216423940 181.0
34.227290380 157.0
34.238156820 195.0
34.249023260 180.0
34.259889700 209.0
34.270756140 216.0
34.281622580 171.0
34.292489020 164.0
34.303355460 163.0
34.314221900 178.0
34.325088340 184.0
34.335954780 198.0
34.346821220 197.0
34.357687660 159.0
34.368554100 193.0
34.379420540 191.0
34.390286980 143.0
34.401153420 154.0
34.412019860 191.0
34.422886300 213.0
34.433752740 167.0
34.444619180 166.0
34.455485620 188.0
34.466352060 176.0
34.477218500 148.0
34.488084940 168.0
34.498951380 190.0
34.509817820 195.0
34.520684260 184.0
34.531550700 172.0
34.542417140 157.0
34.553283580 183.0
34.564150020 201.0
34.575016460 183.0
34.585882900 172.0
34.596749340 163.0
34.607615780 184.0
34.618482220 196.0
34.629348660 199.0
34.640215100 185.0
34.651081540 190.0
34.661947980 203.0
34.672814420 170.0
34.683680860 170.0
34.694547300 200.0
34.705413740 180.0
34.716280180 185.0
34.727146620 178.0
34.738013060 178.0
34.748879500 169.0
34.759745940 167.0
34.770612380 186.0
34.781478820 157.0
34.792345260 180.0
34.803211700 169.0
34.814078140 155.0
34.824944580 163.0
34.835811020 168.0
34.846677460 195.0
34.857543900 169.0
34.868410340 179.0
34.879276780 193.0
34.890143220 190.0
34.901009660 179.0
34.911876100 153.0
34.922742540 174.0
34.933608980 170.0
34.944475420 167.0
34.955341860 179.0
34.966208300 166.0
34.977074740 157.0
34.987941180 162.0
34.998807620 182.0
35.009674060 197.0
35.020540500 192.0
35.031406940 164.0
35.042273380 176.0
35.053139820 160.0
35.064006260 174.0
35.074872700 188.0
35.085739140 183.0
35.096605580 175.0
35.107472020 170.0
35.118338460 171.0
35.129204900 166.0
35.140071340 202.0
35.150937780 178.0
35.161804220 159.0
35.172670660 162.0
35.183537100 177.0
35.194403540 169.0
35.205269980 188.0
35.216136420 213.0
35.227002860 177.0
35.237869300 172.0
35.248735740 190.0
35.259602180 178.0
35.270468620 203.0
35.281335060 179.0
35.292201500 154.0
35.303067940 173.0
35.313934380 188.0
35.324800820 185.0
35.335667260 192.0
35.346533700 202.0
35.357400140 164.0
35.368266580 192.0
35.379133020 184.0
35.389999460 181.0
35.400865900 160.0
35.411732340 169.0
35.422598780 172.0
35.433465220 186.0
35.444331660 188.0
35.455198100 152.0
35.466064540 162.0
35.476930980 193.0
35.487797420 177.0
35.498663860 180.0
35.509530300 171.0
35.520396740 192.0
35.531263180 197.0
35.542129620 200.0
35.552996060 179.0
35.563862500 191.0
35.574728940 164.0
35.585595380 186.0
35.596461820 156.0
35.607328260 166.0
35.618194700 179.0
35.629061140 164.0
35.639927580 173.0
35.650794020 184.0
35.661660460 180.0
35.672526900 181.0
35.683393340 156.0
35.694259780 176.0
35.705126220 172.0
35.715992660 177.0
35.726859100 181.0
35.737725540 166.0
35.748591980 171.0
35.759458420 193.0
35.770324860 191.0
35.781191300 176.0
35.792057740 205.0
35.802924180 184.0
35.813790620 192.0
35.824657060 197.0
35.835523500 163.0
35.846389940 165.0
35.857256380 185.0
35.868122820 180.0
35.878989260 155.0
35.889855700 186.0
35.900722140 187.0
35.911588580 191.0
35.922455020 164.0
35.933321460 186.0
35.944187900 191.0
35.955054340 159.0
35.965920780 188.0
35.976787220 157.0
35.987653660 172.0
35.998520100 184.0
36.009386540 165.0
36.020252980 180.0
36.031119420 192.0
36.041985860 153.0
36.052852300 182.0
36.063718740 183.0
36.074585180 172.0
36.085451620 164.0
36.096318060 144.0
36.107184500 176.0
36.118050940 183.0
36.128917380 194.0
36.139783820 181.0
36.150650260 195.0
36.161516700 152.0
36.172383140 186.0
36.183249580 177.0
36.194116020 154.0
36.204982460 159.0
36.215848900 194.0
36.226715340 205.0
36.237581780 183.0
36.248448220 188.0
36.259314660 185.0
36.270181100 187.0
36.281047540 174.0
36.291913980 177.0
36.302780420 182.0
36.313646860 184.0
36.324513300 169.0
36.335379740 195.0
36.346246180 174.0
36.357112620 182.0
36.367979060 174.0
36.378845500 209.0
36.389711940 182.0
36.400578380 198.0
36.411444820 154.0
36.422311260 168.0
36.433177700 197.0
36.444044140 197.0
36.454910580 175.0
36.465777020 195.0
36.476643460 192.0
36.487509900 163.0
36.498376340 187.0
36.509242780 194.0
36.520109220 170.0
36.530975660 197.0
36.541842100 194.0
36.552708540 188.0
36.563574980 163.0
36.574441420 189.0
36.585307860 183.0
36.596174300 187.0
36.607040740 175.0
36.617907180 175.0
36.628773620 179.0
36.639640060 208.0
36.650506500 182.0
36.661372940 179.0
36.672239380 184.0
36.683105820 199.0
36.693972260 173.0
36.704838700 170.0
36.715705140 191.0
36.726571580 183.0
36.737438020 196.0
36.748304460 195.0
36.759170900 187.0
36.770037340 216.0
36.780903780 181.0
36.791770220 190.0
36.802636660 189.0
36.813503100 204.0
36.824369540 207.0
36.835235980 194.0
36.846102420 168.0
36.856968860 189.0
36.867835300 209.0
36.878701740 212.0
36.889568180 177.0
36.900434620 185.0
36.911301060 182.0
36.922167500 207.0
36.933033940 204.0
36.943900380 176.0
36.954766820 201.0
36.965633260 198.0
36.976499700 217.0
36.987366140 206.0
36.998232580 220.0
37.009099020 221.0
37.019965460 202.0
37.030831900 198.0
37.041698340 181.0
37.052564780 188.0
37.063431220 202.0
37.074297660 208.0
37.085164100 211.0
37.096030540 210.0
37.106896980 232.0
37.117763420 200.0
37.128629860 188.0
37.139496300 203.0
37.150362740 201.0
37.161229180 180.0
37.172095620 198.0
37.182962060 211.0
37.193828500 207.0
37.204694940 188.0
37.215561380 234.0
37.226427820 216.0
37.237294260 239.0
37.248160700 231.0
37.259027140 214.0
37.269893580 215.0
37.280760020 215.0
37.291626460 202.0
37.302492900 221.0
37.313359340 195.0
37.324225780 215.0
37.335092220 220.0
37.345958660 208.0
37.356825100 225.0
37.367691540 243.0
37.378557980 216.0
37.389424420 225.0
37.400290860 194.0
37.411157300 218.0
37.422023740 213.0
37.432890180 243.0
37.443756620 209.0
37.454623060 202.0
37.465489500 217.0
37.476355940 189.0
37.487222380 189.0
37.498088820 227.0
37.508955260 186.0
37.519821700 247.0
37.530688140 226.0
37.541554580 219.0
37.552421020 229.0
37.563287460 195.0
37.574153900 243.0
37.585020340 217.0
37.595886780 219.0
37.606753220 226.0
37.617619660 192.0
37.628486100 230.0
37.639352540 207.0
37.650218980 229.0
37.661085420 214.0
37.671951860 241.0
37.682818300 227.0
37.693684740 246.0
37.704551180 186.0
37.715417620 183.0
37.726284060 191.0
37.737150500 220.0
37.748016940 222.0
37.758883380 248.0
37.769749820 249.0
37.780616260 219.0
37.791482700 236.0
37.802349140 242.0
37.813215580 199.0
37.824082020 237.0
37.834948460 267.0
37.845814900 235.0
37.856681340 221.0
37.867547780 244.0
37.878414220 249.0
37.889280660 240.0
37.900147100 280.0
37.911013540 251.0
37.921879980 291.0
37.932746420 242.0
37.943612860 270.0
37.954479300 294.0
37.965345740 281.0
37.976212180 268.0
37.987078620 306.0
37.997945060 322.0
38.008811500 278.0
38.019677940 272.0
38.030544380 263.0
38.041410820 297.0
38.052277260 327.0
38.063143700 348.0
38.074010140 374.0
38.084876580 348.0
38.095743020 328.0
38.106609460 333.0
38.117475900 364.0
38.128342340 320.0
38.139208780 359.0
38.150075220 323.0
38.160941660 336.0
38.171808100 347.0
38.182674540 336.0
38.193540980 363.0
38.204407420 328.0
38.215273860 356.0
38.226140300 391.0
38.237006740 383.0
38.247873180 366.0
38.258739620 334.0
38.269606060 342.0
38.280472500 354.0
38.291338940 358.0
38.302205380 314.0
38.313071820 331.0
38.323938260 331.0
38.334804700 295.0
38.345671140 320.0
38.356537580 305.0
38.367404020 311.0
38.378270460 344.0
38.389136900 323.0
38.400003340 327.0
38.410869780 256.0
38.421736220 302.0
38.432602660 273.0
38.443469100 245.0
38.454335540 281.0
38.465201980 283.0
38.476068420 267.0
38.486934860 291.0
38.497801300 289.0
38.508667740 268.0
38.519534180 278.0
38.530400620 280.0
38.541267060 290.0
38.552133500 285.0
38.562999940 267.0
38.573866380 280.0
38.584732820 235.0
38.595599260 258.0
38.606465700 236.0
38.617332140 217.0
38.628198580 233.0
38.639065020 241.0
38.649931460 245.0
38.660797900 247.0
38.671664340 194.0
38.682530780 258.0
38.693397220 229.0
38.704263660 208.0
38.715130100 217.0
38.725996540 226.0
38.736862980 214.0
38.747729420 219.0
38.758595860 230.0
38.769462300 240.0
38.780328740 231.0
38.791195180 230.0
38.802061620 235.0
38.812928060 223.0
38.823794500 227.0
38.834660940 202.0
38.845527380 227.0
38.856393820 224.0
38.867260260 232.0
38.878126700 216.0
38.888993140 212.0
38.899859580 216.0
38.910726020 218.0
38.921592460 222.0
38.932458900 203.0
38.943325340 220.0
38.954191780 220.0
38.965058220 206.0
38.975924660 218.0
38.986791100 220.0
38.997657540 233.0
39.008523980 231.0
39.019390420 235.0
39.030256860 194.0
39.041123300 229.0
39.051989740 216.0
39.062856180 203.0
39.073722620 213.0
39.084589060 225.0
39.095455500 212.0
39.106321940 200.0
39.117188380 211.0
39.128054820 176.0
39.138921260 197.0
39.149787700 229.0
39.160654140 211.0
39.171520580 208.0
39.182387020 219.0
39.193253460 198.0
39.204119900 201.0
39.214986340 200.0
39.225852780 204.0
39.236719220 189.0
39.247585660 178.0
39.258452100 205.0
39.269318540 214.0
39.280184980 196.0
39.291051420 190.0
39.301917860 174.0
39.312784300 211.0
39.323650740 198.0
39.334517180 190.0
39.345383620 186.0
39.356250060 194.0
39.367116500 191.0
39.377982940 170.0
39.388849380 193.0
39.399715820 191.0
39.410582260 203.0
39.421448700 172.0
39.432315140 207.0
39.443181580 206.0
39.454048020 204.0
39.464914460 171.0
39.475780900 192.0
39.486647340 186.0
39.497513780 178.0
39.508380220 214.0
39.519246660 189.0
39.530113100 175.0
39.540979540 163.0
39.551845980 183.0
39.562712420 182.0
39.573578860 191.0
39.584445300 186.0
39.595311740 192.0
39.606178180 176.0
39.617044620 161.0
39.627911060 199.0
39.638777500 186.0
39.649643940 180.0
39.660510380 192.0
39.671376820 182.0
39.682243260 169.0
39.693109700 193.0
39.703976140 195.0
39.714842580 145.0
39.725709020 177.0
39.736575460 174.0
39.747441900 155.0
39.758308340 159.0
39.769174780 186.0
39.780041220 217.0
39.790907660 161.0
39.801774100 195.0
39.812640540 167.0
39.823506980 201.0
39.834373420 171.0
39.845239860 172.0
39.856106300 167.0
39.866972740 193.0
39.877839180 175.0
39.888705620 188.0
39.899572060 181.0
39.910438500 181.0
39.921304940 187.0
39.932171380 204.0
39.943037820 182.0
39.953904260 172.0
39.964770700 195.0
39.975637140 194.0
39.986503580 189.0
39.997370020 176.0
40.008236460 179.0
40.019102900 185.0
40.029969340 181.0
40.040835780 195.0
40.051702220 165.0
40.062568660 222.0
40.073435100 162.0
40.084301540 188.0
40.095167980 179.0
40.106034420 154.0
40.116900860 163.0
40.127767300 170.0
40.138633740 147.0
40.149500180 179.0
40.160366620 170.0
40.171233060 176.0
40.182099500 181.0
40.192965940 152.0
40.203832380 168.0
40.214698820 182.0
40.225565260 165.0
40.236431700 190.0
40.247298140 150.0
40.258164580 182.0
40.269031020 186.0
40.279897460 149.0
40.290763900 148.0
40.301630340 184.0
40.312496780 167.0
40.323363220 174.0
40.334229660 171.0
40.345096100 205.0
40.355962540 172.0
40.366828980 170.0
40.377695420 182.0
40.388561860 174.0
40.399428300 172.0
40.410294740 175.0
40.421161180 186.0
40.432027620 179.0
40.442894060 174.0
40.453760500 167.0
40.464626940 171.0
40.475493380 189.0
40.486359820 189.0
40.497226260 183.0
40.508092700 180.0
40.518959140 158.0
40.529825580 174.0
40.540692020 171.0
40.551558460 170.0
40.562424900 187.0
40.573291340 201.0
40.584157780 187.0
40.595024220 207.0
40.605890660 182.0
40.616757100 135.0
40.627623540 178.0
40.638489980 162.0
40.649356420 188.0
40.660222860 175.0
40.671089300 166.0
40.681955740 174.0
40.692822180 175.0
40.703688620 175.0
40.714555060 177.0
40.725421500 178.0
40.736287940 179.0
40.747154380 161.0
40.758020820 167.0
40.768887260 156.0
40.779753700 184.0
40.790620140 185.0
40.801486580 189.0
40.812353020 206.0
40.823219460 156.0
40.834085900 159.0
40.844952340 156.0
40.855818780 166.0
40.866685220 153.0
40.877551660 159.0
40.888418100 189.0
40.899284540 168.0
40.910150980 159.0
40.921017420 168.0
40.931883860 175.0
40.942750300 187.0
40.953616740 206.0
40.964483180 197.0
40.975349620 174.0
40.986216060 192.0
40.997082500 178.0
41.007948940 164.0
41.018815380 162.0
41.029681820 181.0
41.040548260 180.0
41.051414700 172.0
41.062281140 174.0
41.073147580 150.0
41.084014020 198.0
41.094880460 165.0
41.105746900 176.0
41.116613340 142.0
41.127479780 178.0
41.138346220 169.0
41.149212660 183.0
41.160079100 180.0
41.170945540 173.0
41.181811980 187.0
41.192678420 190.0
41.203544860 181.0
41.214411300 173.0
41.225277740 178.0
41.236144180 165.0
41.247010620 162.0
41.257877060 162.0
41.268743500 176.0
41.279609940 176.0
41.290476380 182.0
41.301342820 176.0
41.312209260 161.0
41.323075700 181.0
41.333942140 157.0
41.344808580 143.0
41.355675020 153.0
41.366541460 188.0
41.377407900 165.0
41.388274340 175.0
41.399140780 201.0
41.410007220 173.0
41.420873660 179.0
41.431740100 160.0
41.442606540 155.0
41.453472980 185.0
41.464339420 171.0
41.475205860 142.0
41.486072300 179.0
41.496938740 170.0
41.507805180 212.0
41.518671620 164.0
41.529538060 176.0
41.540404500 163.0
41.551270940 190.0
41.562137380 167.0
41.573003820 158.0
41.583870260 172.0
41.594736700 198.0
41.605603140 166.0
41.616469580 158.0
41.627336020 151.0
41.638202460 176.0
41.649068900 149.0
41.659935340 185.0
41.670801780 172.0
41.681668220 140.0
41.692534660 180.0
41.703401100 177.0
41.714267540 176.0
41.725133980 180.0
41.736000420 157.0
41.746866860 184.0
41.757733300 180.0
41.768599740 164.0
41.779466180 172.0
41.790332620 185.0
41.801199060 178.0
41.812065500 168.0
41.822931940 175.0
41.833798380 160.0
41.844664820 171.0
41.855531260 199.0
41.866397700 174.0
41.877264140 163.0
41.888130580 176.0
41.898997020 173.0
41.909863460 160.0
41.920729900 180.0
41.931596340 172.0
41.942462780 201.0
41.953329220 168.0
41.964195660 162.0
41.975062100 195.0
41.985928540 180.0
41.996794980 160.0
42.007661420 191.0
42.018527860 168.0
42.029394300 166.0
42.040260740 170.0
42.051127180 180.0
42.061993620 161.0
42.072860060 189.0
42.083726500 173.0
42.094592940 172.0
42.105459380 197.0
42.116325820 183.0
42.127192260 162.0
42.138058700 162.0
42.148925140 174.0
42.159791580 163.0
42.170658020 189.0
42.181524460 167.0
42.192390900 194.0
42.203257340 177.0
42.214123780 168.0
42.224990220 167.0
42.235856660 173.0
42.246723100 175.0
42.257589540 176.0
42.268455980 162.0
42.279322420 167.0
42.290188860 177.0
42.301055300 185.0
42.311921740 157.0
42.322788180 184.0
42.333654620 172.0
42.344521060 205.0
42.355387500 139.0
42.366253940 175.0
42.377120380 159.0
42.387986820 170.0
42.398853260 169.0
42.409719700 180.0
42.420586140 164.0
42.431452580 152.0
42.442319020 179.0
42.453185460 181.0
42.464051900 179.0
42.474918340 170.0
42.485784780 189.0
42.496651220 183.0
42.507517660 187.0
42.518384100 190.0
42.529250540 162.0
42.540116980 182.0
42.550983420 171.0
42.561849860 172.0
42.572716300 170.0
42.583582740 168.0
42.594449180 158.0
42.605315620 173.0
42.616182060 179.0
42.627048500 194.0
42.637914940 175.0
42.648781380 177.0
42.659647820 173.0
42.670514260 178.0
42.681380700 173.0
42.692247140 176.0
42.703113580 157.0
42.713980020 182.0
42.724846460 168.0
42.735712900 176.0
42.746579340 193.0
42.757445780 163.0
42.768312220 163.0
42.779178660 163.0
42.790045100 160.0
42.800911540 167.0
42.811777980 197.0
42.822644420 179.0
42.833510860 148.0
42.844377300 173.0
42.855243740 165.0
42.866110180 196.0
42.876976620 154.0
42.887843060 175.0
42.898709500 167.0
42.909575940 154.0
42.920442380 175.0
42.931308820 164.0
42.942175260 177.0
42.953041700 165.0
42.963908140 173.0
42.974774580 143.0
42.985641020 172.0
42.996507460 163.0
43.007373900 184.0
43.018240340 169.0
43.029106780 167.0
43.039973220 202.0
43.050839660 180.0
43.061706100 163.0
43.072572540 170.0
43.083438980 182.0
43.094305420 153.0
43.105171860 157.0
43.116038300 180.0
43.126904740 153.0
43.137771180 178.0
43.148637620 178.0
43.159504060 161.0
43.170370500 181.0
43.181236940 156.0
43.192103380 179.0
43.202969820 175.0
43.213836260 187.0
43.224702700 149.0
43.235569140 168.0
43.246435580 177.0
43.257302020 173.0
43.268168460 176.0
43.279034900 180.0
43.289901340 162.0
43.300767780 173.0
43.311634220 176.0
43.322500660 163.0
43.333367100 167.0
43.344233540 148.0
43.355099980 173.0
43.365966420 190.0
43.376832860 154.0
43.387699300 163.0
43.398565740 150.0
43.409432180 160.0
43.420298620 186.0
43.431165060 167.0
43.442031500 143.0
43.452897940 146.0
43.463764380 166.0
43.474630820 165.0
43.485497260 173.0
43.496363700 177.0
43.507230140 179.0
43.518096580 180.0
43.528963020 175.0
43.539829460 180.0
43.550695900 176.0
43.561562340 168.0
43.572428780 156.0
43.583295220 171.0
43.594161660 179.0
43.605028100 161.0
43.615894540 184.0
43.626760980 167.0
43.637627420 168.0
43.648493860 171.0
43.659360300 164.0
43.670226740 185.0
43.681093180 171.0
43.691959620 160.0
43.702826060 161.0
43.713692500 180.0
43.724558940 177.0
43.735425380 178.0
43.746291820 153.0
43.757158260 163.0
43.768024700 165.0
43.778891140 174.0
43.789757580 177.0
43.800624020 176.0
43.811490460 147.0
43.822356900 181.0
43.833223340 184.0
43.844089780 198.0
43.854956220 176.0
43.865822660 172.0
43.876689100 191.0
43.887555540 157.0
43.898421980 166.0
43.909288420 171.0
43.920154860 192.0
43.931021300 176.0
43.941887740 178.0
43.952754180 169.0
43.963620620 171.0
43.974487060 169.0
43.985353500 158.0
43.996219940 198.0
44.007086380 186.0
44.017952820 165.0
44.028819260 179.0
44.039685700 152.0
44.050552140 176.0
44.061418580 160.0
44.072285020 165.0
44.083151460 160.0
44.094017900 181.0
44.104884340 177.0
44.115750780 201.0
44.126617220 170.0
44.137483660 176.0
44.148350100 161.0
44.159216540 172.0
44.170082980 170.0
44.180949420 179.0
44.191815860 160.0
44.202682300 177.0
44.213548740 161.0
44.224415180 164.0
44.235281620 147.0
44.246148060 191.0
44.257014500 169.0
44.267880940 180.0
44.278747380 175.0
44.289613820 183.0
44.300480260 199.0
44.311346700 175.0
44.322213140 138.0
44.333079580 187.0
44.343946020 164.0
44.354812460 148.0
44.365678900 159.0
44.376545340 159.0
44.387411780 183.0
44.398278220 182.0
44.409144660 172.0
44.420011100 180.0
44.430877540 188.0
44.441743980 153.0
44.452610420 159.0
44.463476860 171.0
44.474343300 180.0
44.485209740 192.0
44.496076180 165.0
44.506942620 164.0
44.517809060 180.0
44.528675500 152.0
44.539541940 194.0
44.550408380 165.0
44.561274820 179.0
44.572141260 187.0
44.583007700 169.0
44.593874140 159.0
44.604740580 160.0
44.615607020 171.0
44.626473460 170.0
44.637339900 190.0
44.648206340 190.0
44.659072780 175.0
44.669939220 175.0
44.680805660 167.0
44.691672100 180.0
44.702538540 142.0
44.713404980 176.0
44.724271420 201.0
44.735137860 193.0
44.746004300 181.0
44.756870740 163.0
44.767737180 168.0
44.778603620 185.0
44.789470060 157.0
44.800336500 183.0
44.811202940 152.0
44.822069380 179.0
44.832935820 160.0
44.843802260 176.0
44.854668700 167.0
44.865535140 144.0
44.876401580 186.0
44.887268020 175.0
44.898134460 182.0
44.909000900 165.0
44.919867340 192.0
44.930733780 164.0
44.941600220 178.0
44.952466660 164.0
44.963333100 178.0
44.974199540 174.0
44.985065980 160.0
44.995932420 194.0
45.006798860 155.0
45.017665300 182.0
45.028531740 161.0
45.039398180 165.0
45.050264620 164.0
45.061131060 145.0
45.071997500 190.0
45.082863940 182.0
45.093730380 150.0
45.104596820 179.0
45.115463260 168.0
45.126329700 150.0
45.137196140 177.0
45.148062580 199.0
45.158929020 193.0
45.169795460 174.0
45.180661900 161.0
45.191528340 182.0
45.202394780 173.0
45.213261220 173.0
45.224127660 164.0
45.234994100 186.0
45.245860540 169.0
45.256726980 169.0
45.267593420 171.0
45.278459860 164.0
45.289326300 176.0
45.300192740 184.0
45.311059180 174.0
45.321925620 174.0
45.332792060 166.0
45.343658500 176.0
45.354524940 167.0
45.365391380 170.0
45.376257820 192.0
45.387124260 185.0
45.397990700 163.0
45.408857140 182.0
45.419723580 152.0
45.430590020 180.0
45.441456460 164.0
45.452322900 178.0
45.463189340 170.0
45.474055780 177.0
45.484922220 166.0
45.495788660 178.0
45.506655100 146.0
45.517521540 156.0
45.528387980 191.0
45.539254420 187.0
45.550120860 169.0
45.560987300 157.0
45.571853740 144.0
45.582720180 160.0
45.593586620 182.0
45.604453060 148.0
45.615319500 200.0
45.626185940 208.0
45.637052380 180.0
45.647918820 179.0
45.658785260 187.0
45.669651700 171.0
45.680518140 155.0
45.691384580 164.0
45.702251020 148.0
45.713117460 164.0
45.723983900 181.0
45.734850340 183.0
45.745716780 171.0
45.756583220 150.0
45.767449660 190.0
45.778316100 162.0
45.789182540 179.0
45.800048980 162.0
45.810915420 187.0
45.821781860 198.0
45.832648300 166.0
45.843514740 169.0
45.854381180 166.0
45.865247620 171.0
45.876114060 151.0
45.886980500 165.0
45.897846940 197.0
45.908713380 175.0
45.919579820 180.0
45.930446260 177.0
45.941312700 172.0
45.952179140 181.0
45.963045580 177.0
45.973912020 176.0
45.984778460 168.0
45.995644900 196.0
46.006511340 188.0
46.017377780 173.0
46.028244220 170.0
46.039110660 178.0
46.049977100 213.0
46.060843540 176.0
46.071709980 148.0
46.082576420 153.0
46.093442860 153.0
46.104309300 180.0
46.115175740 179.0
46.126042180 180.0
46.136908620 180.0
46.147775060 146.0
46.158641500 168.0
46.169507940 152.0
46.180374380 166.0
46.191240820 178.0
46.202107260 175.0
46.212973700 166.0
46.223840140 180.0
46.234706580 176.0
46.245573020 146.0
46.256439460 160.0
46.267305900 163.0
46.278172340 179.0
46.289038780 182.0
46.299905220 176.0
46.310771660 169.0
46.321638100 157.0
46.332504540 185.0
46.343370980 147.0
46.354237420 152.0
46.365103860 171.0
46.375970300 140.0
46.386836740 201.0
46.397703180 180.0
46.408569620 173.0
46.419436060 171.0
46.430302500 171.0
46.441168940 155.0
46.452035380 183.0
46.462901820 145.0
46.473768260 187.0
46.484634700 184.0
46.495501140 181.0
46.506367580 171.0
46.517234020 178.0
46.528100460 187.0
46.538966900 159.0
46.549833340 166.0
46.560699780 181.0
46.571566220 171.0
46.582432660 172.0
46.593299100 185.0
46.604165540 187.0
46.615031980 179.0
46.625898420 167.0
46.636764860 171.0
46.647631300 162.0
46.658497740 178.0
46.669364180 173.0
46.680230620 149.0
46.691097060 189.0
46.701963500 207.0
46.712829940 181.0
46.723696380 177.0
46.734562820 182.0
46.745429260 183.0
46.756295700 169.0
46.767162140 192.0
46.778028580 179.0
46.788895020 178.0
46.799761460 170.0
46.810627900 212.0
46.821494340 177.0
46.832360780 220.0
46.843227220 149.0
46.854093660 195.0
46.864960100 183.0
46.875826540 178.0
46.886692980 171.0
46.897559420 202.0
46.908425860 191.0
46.919292300 170.0
46.930158740 187.0
46.941025180 160.0
46.951891620 173.0
46.962758060 198.0
46.973624500 170.0
46.984490940 181.0
46.995357380 160.0
47.006223820 187.0
47.017090260 196.0
47.027956700 179.0
47.038823140 176.0
47.049689580 179.0
47.060556020 202.0
47.071422460 185.0
47.082288900 191.0
47.093155340 214.0
47.104021780 178.0
47.114888220 191.0
47.125754660 156.0
47.136621100 189.0
47.147487540 169.0
47.158353980 160.0
47.169220420 180.0
47.180086860 177.0
47.190953300 179.0
47.201819740 178.0
47.212686180 176.0
47.223552620 188.0
47.234419060 165.0
47.245285500 202.0
47.256151940 157.0
47.267018380 180.0
47.277884820 158.0
47.288751260 194.0
47.299617700 188.0
47.310484140 182.0
47.321350580 150.0
47.332217020 184.0
47.343083460 173.0
47.353949900 180.0
47.364816340 187.0
47.375682780 192.0
47.386549220 177.0
47.397415660 203.0
47.408282100 220.0
47.419148540 196.0
47.430014980 204.0
47.440881420 205.0
47.451747860 197.0
47.462614300 182.0
47.473480740 191.0
47.484347180 195.0
47.495213620 208.0
47.506080060 183.0
47.516946500 183.0
47.527812940 227.0
47.538679380 189.0
47.549545820 191.0
47.560412260 187.0
47.571278700 206.0
47.582145140 195.0
47.593011580 207.0
47.603878020 201.0
47.614744460 212.0
47.625610900 202.0
47.636477340 203.0
47.647343780 199.0
47.658210220 204.0
47.669076660 221.0
47.679943100 208.0
47.690809540 221.0
47.701675980 205.0
47.712542420 241.0
47.723408860 225.0
47.734275300 230.0
47.745141740 214.0
47.756008180 210.0
47.766874620 248.0
47.777741060 218.0
47.788607500 241.0
47.799473940 215.0
47.810340380 245.0
47.821206820 273.0
47.832073260 226.0
47.842939700 247.0
47.853806140 268.0
47.864672580 263.0
47.875539020 285.0
47.886405460 243.0
47.897271900 290.0
47.908138340 237.0
47.919004780 256.0
47.929871220 284.0
47.940737660 298.0
47.951604100 287.0
47.962470540 300.0
47.973336980 287.0
47.984203420 270.0
47.995069860 292.0
48.005936300 334.0
48.016802740 316.0
48.027669180 298.0
48.038535620 313.0
48.049402060 327.0
48.060268500 305.0
48.071134940 317.0
48.082001380 288.0
48.092867820 301.0
48.103734260 325.0
48.114600700 324.0
48.125467140 311.0
48.136333580 330.0
48.147200020 342.0
48.158066460 348.0
48.168932900 318.0
48.179799340 323.0
48.190665780 348.0
48.201532220 367.0
48.212398660 330.0
48.223265100 299.0
48.234131540 372.0
48.244997980 346.0
48.255864420 332.0
48.266730860 314.0
48.277597300 359.0
48.288463740 349.0
48.299330180 386.0
48.310196620 330.0
48.321063060 381.0
48.331929500 318.0
48.342795940 345.0
48.353662380 303.0
48.364528820 345.0
48.375395260 366.0
48.386261700 368.0
48.397128140 349.0
48.407994580 302.0
48.418861020 333.0
48.429727460 321.0
48.440593900 349.0
48.451460340 353.0
48.462326780 367.0
48.473193220 312.0
48.484059660 331.0
48.494926100 279.0
48.505792540 305.0
48.516658980 290.0
48.527525420 299.0
48.538391860 355.0
48.549258300 300.0
48.560124740 295.0
48.570991180 288.0
48.581857620 279.0
48.592724060 285.0
48.603590500 287.0
48.614456940 292.0
48.625323380 286.0
48.636189820 297.0
48.647056260 268.0
48.657922700 259.0
48.668789140 310.0
48.679655580 278.0
48.690522020 303.0
48.701388460 275.0
48.712254900 261.0
48.723121340 242.0
48.733987780 300.0
48.744854220 258.0
48.755720660 257.0
48.766587100 272.0
48.777453540 226.0
48.788319980 234.0
48.799186420 245.0
48.810052860 244.0
48.820919300 237.0
48.831785740 228.0
48.842652180 227.0
48.853518620 223.0
48.864385060 239.0
48.875251500 224.0
48.886117940 222.0
48.896984380 222.0
48.907850820 237.0
48.918717260 211.0
48.929583700 220.0
48.940450140 207.0
48.951316580 222.0
48.962183020 235.0
48.973049460 215.0
48.983915900 220.0
48.994782340 200.0
49.005648780 217.0
49.016515220 197.0
49.027381660 194.0
49.038248100 231.0
49.049114540 200.0
49.059980980 213.0
49.070847420 205.0
49.081713860 207.0
49.092580300 206.0
49.103446740 197.0
49.114313180 188.0
49.125179620 218.0
49.136046060 179.0
49.146912500 174.0
49.157778940 201.0
49.168645380 176.0
49.179511820 195.0
49.190378260 191.0
49.201244700 208.0
49.212111140 199.0
49.222977580 176.0
49.233844020 166.0
49.244710460 173.0
49.255576900 179.0
49.266443340 178.0
49.277309780 200.0
49.288176220 179.0
49.299042660 170.0
49.309909100 191.0
49.320775540 192.0
49.331641980 174.0
49.342508420 172.0
49.353374860 190.0
49.364241300 190.0
49.375107740 227.0
49.385974180 180.0
49.396840620 205.0
49.407707060 204.0
49.418573500 182.0
49.429439940 174.0
49.440306380 176.0
49.451172820 192.0
49.462039260 179.0
49.472905700 171.0
49.483772140 170.0
49.494638580 187.0
49.505505020 177.0
49.516371460 163.0
49.527237900 182.0
49.538104340 209.0
49.548970780 181.0
49.559837220 180.0
49.570703660 184.0
49.581570100 165.0
49.592436540 179.0
49.603302980 178.0
49.614169420 176.0
49.625035860 178.0
49.635902300 180.0
49.646768740 176.0
49.657635180 161.0
49.668501620 186.0
49.679368060 169.0
49.690234500 200.0
49.701100940 156.0
49.711967380 190.0
49.722833820 169.0
49.733700260 155.0
49.744566700 180.0
49.755433140 194.0
49.766299580 173.0
49.777166020 166.0
49.788032460 171.0
49.798898900 189.0
49.809765340 169.0
49.820631780 182.0
49.831498220 164.0
49.842364660 173.0
49.853231100 211.0
49.864097540 188.0
49.874963980 145.0
49.885830420 185.0
49.896696860 174.0
49.907563300 180.0
49.918429740 184.0
49.929296180 200.0
49.940162620 179.0
49.951029060 192.0
49.961895500 185.0
49.972761940 175.0
49.983628380 182.0
49.994494820 169.0
