5.009866440 4452.0
5.031599320 4485.0
5.053332200 4339.0
5.075065080 4313.0
5.096797960 4238.0
5.118530840 4195.0
5.140263720 4105.0
5.161996600 4112.0
5.183729480 4179.0
5.205462360 4064.0
5.227195240 4156.0
5.248928120 4113.0
5.270661000 3922.0
5.292393880 3995.0
5.314126760 4171.0
5.335859640 4017.0
5.357592520 3969.0
5.379325400 3868.0
5.401058280 3914.0
5.422791160 3840.0
5.444524040 3898.0
5.466256920 3912.0
5.487989800 3824.0
5.509722680 3739.0
5.531455560 3755.0
5.553188440 3725.0
5.574921320 3639.0
5.596654200 3727.0
5.618387080 3625.0
5.640119960 3741.0
5.661852840 3576.0
5.683585720 3667.0
5.705318600 3540.0
5.727051480 3495.0
5.748784360 3474.0
5.770517240 3456.0
5.792250120 3489.0
5.813983000 3465.0
5.835715880 3441.0
5.857448760 3508.0
5.879181640 3464.0
5.900914520 3403.0
5.922647400 3485.0
5.944380280 3379.0
5.966113160 3413.0
5.987846040 3460.0
6.009578920 3320.0
6.031311800 3341.0
6.053044680 3347.0
6.074777560 3343.0
6.096510440 3296.0
6.118243320 3242.0
6.139976200 3340.0
6.161709080 3257.0
6.183441960 3181.0
6.205174840 3205.0
6.226907720 3185.0
6.248640600 3118.0
6.270373480 3141.0
6.292106360 3224.0
6.313839240 3106.0
6.335572120 3136.0
6.357305000 3307.0
6.379037880 3190.0
6.400770760 3046.0
6.422503640 3080.0
6.444236520 3122.0
6.465969400 3139.0
6.487702280 3048.0
6.509435160 3102.0
6.531168040 3097.0
6.552900920 3027.0
6.574633800 3044.0
6.596366680 3081.0
6.618099560 3045.0
6.639832440 3048.0
6.661565320 3018.0
6.683298200 3062.0
6.705031080 2962.0
6.726763960 3011.0
6.748496840 3042.0
6.770229720 3024.0
6.791962600 3087.0
6.813695480 3067.0
6.835428360 3099.0
6.857161240 3096.0
6.878894120 3138.0
6.900627000 3111.0
6.922359880 3275.0
6.944092760 3165.0
6.965825640 3210.0
6.987558520 3281.0
7.009291400 3186.0
7.031024280 3463.0
7.052757160 3364.0
7.074490040 3477.0
7.096222920 3703.0
7.117955800 3697.0
7.139688680 3822.0
7.161421560 4195.0
7.183154440 4079.0
7.204887320 4253.0
7.226620200 4291.0
7.248353080 4343.0
7.270085960 4248.0
7.291818840 4238.0
7.313551720 4273.0
7.335284600 4123.0
7.357017480 3976.0
7.378750360 4090.0
7.400483240 4026.0
7.422216120 3805.0
7.443949000 3907.0
7.465681880 3718.0
7.487414760 3547.0
7.509147640 3324.0
7.530880520 3196.0
7.552613400 3071.0
7.574346280 2918.0
7.596079160 2845.0
7.617812040 2766.0
7.639544920 2695.0
7.661277800 2790.0
7.683010680 2635.0
7.704743560 2689.0
7.726476440 2633.0
7.748209320 2621.0
7.769942200 2630.0
7.791675080 2578.0
7.813407960 2607.0
7.835140840 2596.0
7.856873720 2542.0
7.878606600 2637.0
7.900339480 2517.0
7.922072360 2475.0
7.943805240 2583.0
7.965538120 2563.0
7.987271000 2565.0
8.009003880 2527.0
8.030736760 2537.0
8.052469640 2538.0
8.074202520 2517.0
8.095935400 2538.0
8.117668280 2589.0
8.139401160 2501.0
8.161134040 2428.0
8.182866920 2413.0
8.204599800 2564.0
8.226332680 2465.0
8.248065560 2485.0
8.269798440 2453.0
8.291531320 2379.0
8.313264200 2470.0
8.334997080 2550.0
8.356729960 2428.0
8.378462840 2520.0
8.400195720 2385.0
8.421928600 2402.0
8.443661480 2414.0
8.465394360 2456.0
8.487127240 2490.0
8.508860120 2442.0
8.530593000 2392.0
8.552325880 2426.0
8.574058760 2389.0
8.595791640 2304.0
8.617524520 2407.0
8.639257400 2343.0
8.660990280 2285.0
8.682723160 2376.0
8.704456040 2414.0
8.726188920 2414.0
8.747921800 2319.0
8.769654680 2378.0
8.791387560 2281.0
8.813120440 2378.0
8.834853320 2398.0
8.856586200 2263.0
8.878319080 2383.0
8.900051960 2328.0
8.921784840 2250.0
8.943517720 2243.0
8.965250600 2309.0
8.986983480 2358.0
9.008716360 2354.0
9.030449240 2361.0
9.052182120 2286.0
9.073915000 2326.0
9.095647880 2366.0
9.117380760 2205.0
9.139113640 2283.0
9.160846520 2342.0
9.182579400 2294.0
9.204312280 2291.0
9.226045160 2309.0
9.247778040 2269.0
9.269510920 2294.0
9.291243800 2292.0
9.312976680 2225.0
9.334709560 2246.0
9.356442440 2289.0
9.378175320 2234.0
9.399908200 2270.0
9.421641080 2264.0
9.443373960 2226.0
9.465106840 2283.0
9.486839720 2202.0
9.508572600 2250.0
9.530305480 2176.0
9.552038360 2133.0
9.573771240 2258.0
9.595504120 2223.0
9.617237000 2171.0
9.638969880 2213.0
9.660702760 2289.0
9.682435640 2212.0
9.704168520 2272.0
9.725901400 2226.0
9.747634280 2193.0
9.769367160 2187.0
9.791100040 2222.0
9.812832920 2161.0
9.834565800 2234.0
9.856298680 2271.0
9.878031560 2199.0
9.899764440 2207.0
9.921497320 2260.0
9.943230200 2218.0
9.964963080 2217.0
9.986695960 2150.0
10.008428840 2211.0
10.030161720 2189.0
10.051894600 2279.0
10.073627480 2250.0
10.095360360 2273.0
10.117093240 2304.0
10.138826120 2275.0
10.160559000 2366.0
10.182291880 2321.0
10.204024760 2382.0
10.225757640 2445.0
10.247490520 2395.0
10.269223400 2388.0
10.290956280 2391.0
10.312689160 2423.0
10.334422040 2401.0
10.356154920 2387.0
10.377887800 2382.0
10.399620680 2304.0
10.421353560 2503.0
10.443086440 2549.0
10.464819320 2442.0
10.486552200 2447.0
10.508285080 2470.0
10.530017960 2424.0
10.551750840 2377.0
10.573483720 2372.0
10.595216600 2211.0
10.616949480 2328.0
10.638682360 2228.0
10.660415240 2222.0
10.682148120 2191.0
10.703881000 2099.0
10.725613880 2178.0
10.747346760 2244.0
10.769079640 2174.0
10.790812520 2259.0
10.812545400 2283.0
10.834278280 2121.0
10.856011160 2164.0
10.877744040 2192.0
10.899476920 2216.0
10.921209800 2171.0
10.942942680 2226.0
10.964675560 2212.0
10.986408440 2262.0
11.008141320 2197.0
11.029874200 2174.0
11.051607080 2174.0
11.073339960 2163.0
11.095072840 2144.0
11.116805720 2269.0
11.138538600 2166.0
11.160271480 2198.0
11.182004360 2208.0
11.203737240 2158.0
11.225470120 2142.0
11.247203000 2153.0
11.268935880 2144.0
11.290668760 2044.0
11.312401640 2084.0
11.334134520 2135.0
11.355867400 2056.0
11.377600280 1990.0
11.399333160 2028.0
11.421066040 2077.0
11.442798920 2094.0
11.464531800 2063.0
11.486264680 2099.0
11.507997560 2082.0
11.529730440 2029.0
11.551463320 2082.0
11.573196200 1954.0
11.594929080 1989.0
11.616661960 1990.0
11.638394840 2066.0
11.660127720 2045.0
11.681860600 1986.0
11.703593480 2043.0
11.725326360 2128.0
11.747059240 1886.0
11.768792120 2035.0
11.790525000 2071.0
11.812257880 2014.0
11.833990760 1878.0
11.855723640 1904.0
11.877456520 2036.0
11.899189400 2002.0
11.920922280 1980.0
11.942655160 2021.0
11.964388040 1901.0
11.986120920 1936.0
12.007853800 2038.0
12.029586680 2060.0
12.051319560 2004.0
12.073052440 1994.0
12.094785320 2025.0
12.116518200 1987.0
12.138251080 2052.0
12.159983960 1982.0
12.181716840 2086.0
12.203449720 2054.0
12.225182600 2060.0
12.246915480 2113.0
12.268648360 2097.0
12.290381240 2110.0
12.312114120 2072.0
12.333847000 2060.0
12.355579880 2072.0
12.377312760 2097.0
12.399045640 2103.0
12.420778520 2276.0
12.442511400 2208.0
12.464244280 2325.0
12.485977160 2354.0
12.507710040 2328.0
12.529442920 2437.0
12.551175800 2513.0
12.572908680 2590.0
12.594641560 2662.0
12.616374440 2674.0
12.638107320 2747.0
12.659840200 2694.0
12.681573080 2752.0
12.703305960 2728.0
12.725038840 2647.0
12.746771720 2739.0
12.768504600 2893.0
12.790237480 2836.0
12.811970360 2842.0
12.833703240 2853.0
12.855436120 2942.0
12.877169000 2929.0
12.898901880 2835.0
12.920634760 2742.0
12.942367640 2699.0
12.964100520 2603.0
12.985833400 2395.0
13.007566280 2303.0
13.029299160 2193.0
13.051032040 2264.0
13.072764920 2131.0
13.094497800 2067.0
13.116230680 2090.0
13.137963560 2135.0
13.159696440 1988.0
13.181429320 2036.0
13.203162200 2098.0
13.224895080 2012.0
13.246627960 2082.0
13.268360840 2032.0
13.290093720 1982.0
13.311826600 2041.0
13.333559480 2064.0
13.355292360 1985.0
13.377025240 2045.0
13.398758120 1966.0
13.420491000 2065.0
13.442223880 2062.0
13.463956760 1996.0
13.485689640 1978.0
13.507422520 2028.0
13.529155400 2000.0
13.550888280 1978.0
13.572621160 2021.0
13.594354040 1990.0
13.616086920 2014.0
13.637819800 2069.0
13.659552680 2085.0
13.681285560 1965.0
13.703018440 1990.0
13.724751320 2002.0
13.746484200 2078.0
13.768217080 1981.0
13.789949960 1960.0
13.811682840 1942.0
13.833415720 1991.0
13.855148600 2030.0
13.876881480 2022.0
13.898614360 1994.0
13.920347240 2106.0
13.942080120 1961.0
13.963813000 2030.0
13.985545880 2033.0
14.007278760 2056.0
14.029011640 1926.0
14.050744520 2059.0
14.072477400 2039.0
14.094210280 1959.0
14.115943160 1979.0
14.137676040 1970.0
14.159408920 2077.0
14.181141800 2012.0
14.202874680 2050.0
14.224607560 1942.0
14.246340440 1922.0
14.268073320 1980.0
14.289806200 1990.0
14.311539080 1985.0
14.333271960 1936.0
14.355004840 1925.0
14.376737720 2024.0
14.398470600 1925.0
14.420203480 1982.0
14.441936360 1937.0
14.463669240 2143.0
14.485402120 2005.0
14.507135000 2043.0
14.528867880 2024.0
14.550600760 2065.0
14.572333640 1977.0
14.594066520 2049.0
14.615799400 2117.0
14.637532280 2064.0
14.659265160 2025.0
14.680998040 2106.0
14.702730920 2046.0
14.724463800 2061.0
14.746196680 2101.0
14.767929560 2042.0
14.789662440 2142.0
14.811395320 2197.0
14.833128200 2149.0
14.854861080 2126.0
14.876593960 2057.0
14.898326840 2026.0
14.920059720 2112.0
14.941792600 2051.0
14.963525480 2066.0
14.985258360 1965.0
15.006991240 2024.0
15.028724120 2000.0
15.050457000 1889.0
15.072189880 2041.0
15.093922760 1958.0
15.115655640 1992.0
15.137388520 1934.0
15.159121400 1881.0
15.180854280 1929.0
15.202587160 1984.0
15.224320040 1912.0
15.246052920 1890.0
15.267785800 1912.0
15.289518680 1922.0
15.311251560 1899.0
15.332984440 1993.0
15.354717320 1909.0
15.376450200 2052.0
15.398183080 1861.0
15.419915960 1845.0
15.441648840 1896.0
15.463381720 1890.0
15.485114600 1966.0
15.506847480 1887.0
15.528580360 1881.0
15.550313240 1864.0
15.572046120 1770.0
15.593779000 1829.0
15.615511880 1831.0
15.637244760 1844.0
15.658977640 1950.0
15.680710520 1859.0
15.702443400 1922.0
15.724176280 1992.0
15.745909160 1839.0
15.767642040 1841.0
15.789374920 1884.0
15.811107800 1840.0
15.832840680 1871.0
15.854573560 1822.0
15.876306440 1877.0
15.898039320 1828.0
15.919772200 1821.0
15.941505080 1854.0
15.963237960 1876.0
15.984970840 1780.0
16.006703720 1793.0
16.028436600 1875.0
16.050169480 1871.0
16.071902360 1903.0
16.093635240 1830.0
16.115368120 1847.0
16.137101000 1875.0
16.158833880 1768.0
16.180566760 1828.0
16.202299640 1917.0
16.224032520 1893.0
16.245765400 1892.0
16.267498280 1921.0
16.289231160 1952.0
16.310964040 1997.0
16.332696920 1998.0
16.354429800 1825.0
16.376162680 1892.0
16.397895560 1934.0
16.419628440 2061.0
16.441361320 2024.0
16.463094200 1925.0
16.484827080 2060.0
16.506559960 2074.0
16.528292840 2089.0
16.550025720 2057.0
16.571758600 2002.0
16.593491480 2006.0
16.615224360 2016.0
16.636957240 2016.0
16.658690120 1934.0
16.680423000 1946.0
16.702155880 1940.0
16.723888760 2006.0
16.745621640 1951.0
16.767354520 1949.0
16.789087400 1881.0
16.810820280 1841.0
16.832553160 1817.0
16.854286040 1786.0
16.876018920 1861.0
16.897751800 1777.0
16.919484680 1900.0
16.941217560 1820.0
16.962950440 1903.0
16.984683320 1835.0
17.006416200 1822.0
17.028149080 1832.0
17.049881960 1751.0
17.071614840 1783.0
17.093347720 1795.0
17.115080600 1816.0
17.136813480 1762.0
17.158546360 1769.0
17.180279240 1820.0
17.202012120 1811.0
17.223745000 1805.0
17.245477880 1680.0
17.267210760 1766.0
17.288943640 1739.0
17.310676520 1772.0
17.332409400 1772.0
17.354142280 1763.0
17.375875160 1747.0
17.397608040 1759.0
17.419340920 1755.0
17.441073800 1716.0
17.462806680 1758.0
17.484539560 1791.0
17.506272440 1797.0
17.528005320 1794.0
17.549738200 1771.0
17.571471080 1811.0
17.593203960 1793.0
17.614936840 1755.0
17.636669720 1808.0
17.658402600 1785.0
17.680135480 1835.0
17.701868360 1779.0
17.723601240 1828.0
17.745334120 1816.0
17.767067000 1811.0
17.788799880 1785.0
17.810532760 1825.0
17.832265640 1871.0
17.853998520 1896.0
17.875731400 1941.0
17.897464280 2004.0
17.919197160 2104.0
17.940930040 2088.0
17.962662920 2142.0
17.984395800 2011.0
18.006128680 2199.0
18.027861560 2095.0
18.049594440 2074.0
18.071327320 2160.0
18.093060200 2191.0
18.114793080 2271.0
18.136525960 2298.0
18.158258840 2240.0
18.179991720 2299.0
18.201724600 2301.0
18.223457480 2303.0
18.245190360 2258.0
18.266923240 2280.0
18.288656120 2215.0
18.310389000 2073.0
18.332121880 2054.0
18.353854760 1935.0
18.375587640 1916.0
18.397320520 1783.0
18.419053400 1845.0
18.440786280 1743.0
18.462519160 1708.0
18.484252040 1816.0
18.505984920 1811.0
18.527717800 1751.0
18.549450680 1758.0
18.571183560 1758.0
18.592916440 1786.0
18.614649320 1818.0
18.636382200 1757.0
18.658115080 1788.0
18.679847960 1878.0
18.701580840 1755.0
18.723313720 1840.0
18.745046600 1818.0
18.766779480 1745.0
18.788512360 1768.0
18.810245240 1851.0
18.831978120 1806.0
18.853711000 1805.0
18.875443880 1841.0
18.897176760 1739.0
18.918909640 1839.0
18.940642520 1752.0
18.962375400 1833.0
18.984108280 1821.0
19.005841160 1850.0
19.027574040 1774.0
19.049306920 1767.0
19.071039800 1824.0
19.092772680 1810.0
19.114505560 1832.0
19.136238440 1819.0
19.157971320 1818.0
19.179704200 1785.0
19.201437080 1866.0
19.223169960 1846.0
19.244902840 1865.0
19.266635720 1910.0
19.288368600 1847.0
19.310101480 1799.0
19.331834360 1783.0
19.353567240 1788.0
19.375300120 1855.0
19.397033000 1850.0
19.418765880 1764.0
19.440498760 1754.0
19.462231640 1704.0
19.483964520 1801.0
19.505697400 1740.0
19.527430280 1752.0
19.549163160 1762.0
19.570896040 1734.0
19.592628920 1785.0
19.614361800 1715.0
19.636094680 1824.0
19.657827560 1706.0
19.679560440 1779.0
19.701293320 1749.0
19.723026200 1775.0
19.744759080 1820.0
19.766491960 1735.0
19.788224840 1853.0
19.809957720 1720.0
19.831690600 1755.0
19.853423480 1695.0
19.875156360 1726.0
19.896889240 1690.0
19.918622120 1656.0
19.940355000 1725.0
19.962087880 1741.0
19.983820760 1683.0
20.005553640 1736.0
20.027286520 1823.0
20.049019400 1774.0
20.070752280 1737.0
20.092485160 1776.0
20.114218040 1656.0
20.135950920 1719.0
20.157683800 1666.0
20.179416680 1789.0
20.201149560 1756.0
20.222882440 1722.0
20.244615320 1730.0
20.266348200 1709.0
20.288081080 1772.0
20.309813960 1706.0
20.331546840 1714.0
20.353279720 1709.0
20.375012600 1742.0
20.396745480 1753.0
20.418478360 1659.0
20.440211240 1594.0
20.461944120 1673.0
20.483677000 1739.0
20.505409880 1678.0
20.527142760 1670.0
20.548875640 1651.0
20.570608520 1670.0
20.592341400 1659.0
20.614074280 1670.0
20.635807160 1716.0
20.657540040 1634.0
20.679272920 1675.0
20.701005800 1655.0
20.722738680 1717.0
20.744471560 1703.0
20.766204440 1617.0
20.787937320 1697.0
20.809670200 1637.0
20.831403080 1699.0
20.853135960 1719.0
20.874868840 1716.0
20.896601720 1664.0
20.918334600 1670.0
20.940067480 1767.0
20.961800360 1715.0
20.983533240 1715.0
21.005266120 1658.0
21.026999000 1709.0
21.048731880 1628.0
21.070464760 1648.0
21.092197640 1672.0
21.113930520 1698.0
21.135663400 1743.0
21.157396280 1691.0
21.179129160 1745.0
21.200862040 1676.0
21.222594920 1674.0
21.244327800 1687.0
21.266060680 1747.0
21.287793560 1778.0
21.309526440 1681.0
21.331259320 1645.0
21.352992200 1674.0
21.374725080 1654.0
21.396457960 1688.0
21.418190840 1713.0
21.439923720 1703.0
21.461656600 1714.0
21.483389480 1678.0
21.505122360 1653.0
21.526855240 1656.0
21.548588120 1710.0
21.570321000 1622.0
21.592053880 1671.0
21.613786760 1704.0
21.635519640 1760.0
21.657252520 1711.0
21.678985400 1679.0
21.700718280 1642.0
21.722451160 1664.0
21.744184040 1612.0
21.765916920 1656.0
21.787649800 1737.0
21.809382680 1629.0
21.831115560 1712.0
21.852848440 1681.0
21.874581320 1667.0
21.896314200 1733.0
21.918047080 1634.0
21.939779960 1732.0
21.961512840 1712.0
21.983245720 1683.0
22.004978600 1788.0
22.026711480 1752.0
22.048444360 1731.0
22.070177240 1695.0
22.091910120 1758.0
22.113643000 1782.0
22.135375880 1846.0
22.157108760 1752.0
22.178841640 1815.0
22.200574520 1786.0
22.222307400 1751.0
22.244040280 1803.0
22.265773160 1852.0
22.287506040 1837.0
22.309238920 1856.0
22.330971800 1887.0
22.352704680 1852.0
22.374437560 1822.0
22.396170440 1895.0
22.417903320 1769.0
22.439636200 1775.0
22.461369080 1799.0
22.483101960 1720.0
22.504834840 1761.0
22.526567720 1685.0
22.548300600 1643.0
22.570033480 1715.0
22.591766360 1758.0
22.613499240 1703.0
22.635232120 1684.0
22.656965000 1697.0
22.678697880 1756.0
22.700430760 1661.0
22.722163640 1725.0
22.743896520 1626.0
22.765629400 1691.0
22.787362280 1732.0
22.809095160 1667.0
22.830828040 1584.0
22.852560920 1641.0
22.874293800 1606.0
22.896026680 1666.0
22.917759560 1694.0
22.939492440 1660.0
22.961225320 1694.0
22.982958200 1688.0
23.004691080 1688.0
23.026423960 1625.0
23.048156840 1671.0
23.069889720 1630.0
23.091622600 1676.0
23.113355480 1668.0
23.135088360 1660.0
23.156821240 1748.0
23.178554120 1661.0
23.200287000 1661.0
23.222019880 1638.0
23.243752760 1648.0
23.265485640 1656.0
23.287218520 1661.0
23.308951400 1737.0
23.330684280 1686.0
23.352417160 1683.0
23.374150040 1654.0
23.395882920 1748.0
23.417615800 1719.0
23.439348680 1647.0
23.461081560 1693.0
23.482814440 1775.0
23.504547320 1716.0
23.526280200 1670.0
23.548013080 1702.0
23.569745960 1702.0
23.591478840 1677.0
23.613211720 1624.0
23.634944600 1658.0
23.656677480 1680.0
23.678410360 1591.0
23.700143240 1697.0
23.721876120 1605.0
23.743609000 1571.0
23.765341880 1656.0
23.787074760 1702.0
23.808807640 1635.0
23.830540520 1641.0
23.852273400 1601.0
23.874006280 1749.0
23.895739160 1760.0
23.917472040 1690.0
23.939204920 1659.0
23.960937800 1688.0
23.982670680 1687.0
24.004403560 1683.0
24.026136440 1695.0
24.047869320 1714.0
24.069602200 1729.0
24.091335080 1719.0
24.113067960 1690.0
24.134800840 1716.0
24.156533720 1634.0
24.178266600 1595.0
24.199999480 1770.0
24.221732360 1681.0
24.243465240 1722.0
24.265198120 1765.0
24.286931000 1669.0
24.308663880 1703.0
24.330396760 1629.0
24.352129640 1823.0
24.373862520 1764.0
24.395595400 1712.0
24.417328280 1797.0
24.439061160 1778.0
24.460794040 1808.0
24.482526920 1755.0
24.504259800 1880.0
24.525992680 1768.0
24.547725560 1759.0
24.569458440 1756.0
24.591191320 1799.0
24.612924200 1861.0
24.634657080 1919.0
24.656389960 1859.0
24.678122840 1927.0
24.699855720 1887.0
24.721588600 1872.0
24.743321480 1876.0
24.765054360 1834.0
24.786787240 1802.0
24.808520120 1844.0
24.830253000 1821.0
24.851985880 1824.0
24.873718760 1795.0
24.895451640 1646.0
24.917184520 1656.0
24.938917400 1719.0
24.960650280 1714.0
24.982383160 1650.0
25.004116040 1659.0
25.025848920 1676.0
25.047581800 1674.0
25.069314680 1666.0
25.091047560 1657.0
25.112780440 1713.0
25.134513320 1566.0
25.156246200 1801.0
25.177979080 1618.0
25.199711960 1698.0
25.221444840 1668.0
25.243177720 1679.0
25.264910600 1625.0
25.286643480 1625.0
25.308376360 1661.0
25.330109240 1644.0
25.351842120 1714.0
25.373575000 1724.0
25.395307880 1737.0
25.417040760 1700.0
25.438773640 1679.0
25.460506520 1740.0
25.482239400 1738.0
25.503972280 1719.0
25.525705160 1795.0
25.547438040 1739.0
25.569170920 1700.0
25.590903800 1739.0
25.612636680 1816.0
25.634369560 1864.0
25.656102440 1848.0
25.677835320 1770.0
25.699568200 1813.0
25.721301080 1766.0
25.743033960 1837.0
25.764766840 1769.0
25.786499720 1761.0
25.808232600 1776.0
25.829965480 1741.0
25.851698360 1793.0
25.873431240 1713.0
25.895164120 1756.0
25.916897000 1700.0
25.938629880 1745.0
25.960362760 1682.0
25.982095640 1755.0
26.003828520 1687.0
26.025561400 1711.0
26.047294280 1711.0
26.069027160 1643.0
26.090760040 1647.0
26.112492920 1662.0
26.134225800 1661.0
26.155958680 1630.0
26.177691560 1615.0
26.199424440 1678.0
26.221157320 1681.0
26.242890200 1642.0
26.264623080 1720.0
26.286355960 1657.0
26.308088840 1742.0
26.329821720 1669.0
26.351554600 1705.0
26.373287480 1668.0
26.395020360 1656.0
26.416753240 1698.0
26.438486120 1763.0
26.460219000 1753.0
26.481951880 1775.0
26.503684760 1835.0
26.525417640 1808.0
26.547150520 1814.0
26.568883400 1836.0
26.590616280 1750.0
26.612349160 1879.0
26.634082040 1908.0
26.655814920 1889.0
26.677547800 1886.0
26.699280680 1930.0
26.721013560 1920.0
26.742746440 1992.0
26.764479320 2030.0
26.786212200 2041.0
26.807945080 1999.0
26.829677960 1963.0
26.851410840 1958.0
26.873143720 2053.0
26.894876600 2001.0
26.916609480 2060.0
26.938342360 2201.0
26.960075240 2041.0
26.981808120 1941.0
27.003541000 1949.0
27.025273880 1814.0
27.047006760 1801.0
27.068739640 1827.0
27.090472520 1728.0
27.112205400 1747.0
27.133938280 1772.0
27.155671160 1647.0
27.177404040 1722.0
27.199136920 1665.0
27.220869800 1678.0
27.242602680 1678.0
27.264335560 1747.0
27.286068440 1710.0
27.307801320 1646.0
27.329534200 1687.0
27.351267080 1749.0
27.372999960 1730.0
27.394732840 1686.0
27.416465720 1760.0
27.438198600 1677.0
27.459931480 1708.0
27.481664360 1760.0
27.503397240 1647.0
27.525130120 1646.0
27.546863000 1662.0
27.568595880 1711.0
27.590328760 1720.0
27.612061640 1733.0
27.633794520 1801.0
27.655527400 1699.0
27.677260280 1684.0
27.698993160 1692.0
27.720726040 1658.0
27.742458920 1682.0
27.764191800 1698.0
27.785924680 1707.0
27.807657560 1789.0
27.829390440 1803.0
27.851123320 1670.0
27.872856200 1646.0
27.894589080 1787.0
27.916321960 1618.0
27.938054840 1649.0
27.959787720 1722.0
27.981520600 1690.0
28.003253480 1609.0
28.024986360 1727.0
28.046719240 1714.0
28.068452120 1734.0
28.090185000 1718.0
28.111917880 1745.0
28.133650760 1662.0
28.155383640 1667.0
28.177116520 1698.0
28.198849400 1707.0
28.220582280 1680.0
28.242315160 1643.0
28.264048040 1755.0
28.285780920 1699.0
28.307513800 1769.0
28.329246680 1744.0
28.350979560 1774.0
28.372712440 1762.0
28.394445320 1784.0
28.416178200 1640.0
28.437911080 1717.0
28.459643960 1692.0
28.481376840 1720.0
28.503109720 1676.0
28.524842600 1750.0
28.546575480 1666.0
28.568308360 1742.0
28.590041240 1769.0
28.611774120 1673.0
28.633507000 1688.0
28.655239880 1670.0
28.676972760 1737.0
28.698705640 1705.0
28.720438520 1758.0
28.742171400 1770.0
28.763904280 1718.0
28.785637160 1801.0
28.807370040 1744.0
28.829102920 1834.0
28.850835800 1807.0
28.872568680 1734.0
28.894301560 1768.0
28.916034440 1821.0
28.937767320 1845.0
28.959500200 1727.0
28.981233080 1777.0
29.002965960 1789.0
29.024698840 1763.0
29.046431720 1753.0
29.068164600 1770.0
29.089897480 1692.0
29.111630360 1750.0
29.133363240 1725.0
29.155096120 1804.0
29.176829000 1740.0
29.198561880 1848.0
29.220294760 1777.0
29.242027640 1891.0
29.263760520 1823.0
29.285493400 1771.0
29.307226280 1746.0
29.328959160 1764.0
29.350692040 1810.0
29.372424920 1781.0
29.394157800 1816.0
29.415890680 1810.0
29.437623560 1806.0
29.459356440 1876.0
29.481089320 1766.0
29.502822200 1823.0
29.524555080 1901.0
29.546287960 1901.0
29.568020840 1800.0
29.589753720 1831.0
29.611486600 1846.0
29.633219480 1837.0
29.654952360 1863.0
29.676685240 1893.0
29.698418120 1922.0
29.720151000 1942.0
29.741883880 1953.0
29.763616760 1986.0
29.785349640 1968.0
29.807082520 2005.0
29.828815400 1911.0
29.850548280 1952.0
29.872281160 2063.0
29.894014040 2027.0
29.915746920 1891.0
29.937479800 1916.0
29.959212680 2000.0
29.980945560 1895.0
30.002678440 1949.0
30.024411320 1917.0
30.046144200 1810.0
30.067877080 1809.0
30.089609960 1759.0
30.111342840 1826.0
30.133075720 1829.0
30.154808600 1895.0
30.176541480 1771.0
30.198274360 1845.0
30.220007240 1780.0
30.241740120 1762.0
30.263473000 1868.0
30.285205880 1833.0
30.306938760 1836.0
30.328671640 1843.0
30.350404520 1894.0
30.372137400 1882.0
30.393870280 1828.0
30.415603160 1822.0
30.437336040 1910.0
30.459068920 1946.0
30.480801800 1838.0
30.502534680 1888.0
30.524267560 1953.0
30.546000440 1901.0
30.567733320 1846.0
30.589466200 1893.0
30.611199080 1844.0
30.632931960 1880.0
30.654664840 1932.0
30.676397720 1893.0
30.698130600 1943.0
30.719863480 1913.0
30.741596360 1931.0
30.763329240 1993.0
30.785062120 1943.0
30.806795000 1897.0
30.828527880 1920.0
30.850260760 1950.0
30.871993640 1963.0
30.893726520 1905.0
30.915459400 1901.0
30.937192280 1842.0
30.958925160 1847.0
30.980658040 1867.0
31.002390920 1866.0
31.024123800 1886.0
31.045856680 1823.0
31.067589560 1763.0
31.089322440 1811.0
31.111055320 1833.0
31.132788200 1895.0
31.154521080 1759.0
31.176253960 1836.0
31.197986840 1826.0
31.219719720 1843.0
31.241452600 1894.0
31.263185480 1826.0
31.284918360 1883.0
31.306651240 1856.0
31.328384120 1878.0
31.350117000 1824.0
31.371849880 1827.0
31.393582760 1791.0
31.415315640 1855.0
31.437048520 1834.0
31.458781400 1822.0
31.480514280 1881.0
31.502247160 1862.0
31.523980040 1840.0
31.545712920 1906.0
31.567445800 1900.0
31.589178680 1858.0
31.610911560 1855.0
31.632644440 1873.0
31.654377320 1902.0
31.676110200 1902.0
31.697843080 1891.0
31.719575960 1996.0
31.741308840 1964.0
31.763041720 1964.0
31.784774600 1935.0
31.806507480 1843.0
31.828240360 1893.0
31.849973240 1901.0
31.871706120 1818.0
31.893439000 1848.0
31.915171880 1827.0
31.936904760 1785.0
31.958637640 1778.0
31.980370520 1839.0
32.002103400 1774.0
32.023836280 1865.0
32.045569160 1862.0
32.067302040 1778.0
32.089034920 1811.0
32.110767800 1787.0
32.132500680 1903.0
32.154233560 1764.0
32.175966440 1773.0
32.197699320 1867.0
32.219432200 1765.0
32.241165080 1834.0
32.262897960 1879.0
32.284630840 1816.0
32.306363720 1883.0
32.328096600 1812.0
32.349829480 1815.0
32.371562360 1938.0
32.393295240 1912.0
32.415028120 1883.0
32.436761000 1881.0
32.458493880 1900.0
32.480226760 1952.0
32.501959640 1864.0
32.523692520 1922.0
32.545425400 1865.0
32.567158280 1976.0
32.588891160 2035.0
32.610624040 1987.0
32.632356920 1950.0
32.654089800 1975.0
32.675822680 1949.0
32.697555560 1932.0
32.719288440 1805.0
32.741021320 1913.0
32.762754200 1882.0
32.784487080 1832.0
32.806219960 1854.0
32.827952840 1818.0
32.849685720 1810.0
32.871418600 1838.0
32.893151480 1782.0
32.914884360 1790.0
32.936617240 1794.0
32.958350120 1771.0
32.980083000 1782.0
33.001815880 1834.0
33.023548760 1749.0
33.045281640 1840.0
33.067014520 1812.0
33.088747400 1790.0
33.110480280 1820.0
33.132213160 1757.0
33.153946040 1784.0
33.175678920 1839.0
33.197411800 1853.0
33.219144680 1861.0
33.240877560 1714.0
33.262610440 1822.0
33.284343320 1738.0
33.306076200 1796.0
33.327809080 1859.0
33.349541960 1816.0
33.371274840 1738.0
33.393007720 1812.0
33.414740600 1756.0
33.436473480 1815.0
33.458206360 1911.0
33.479939240 1760.0
33.501672120 1793.0
33.523405000 1809.0
33.545137880 1802.0
33.566870760 1810.0
33.588603640 1871.0
33.610336520 1817.0
33.632069400 1822.0
33.653802280 1743.0
33.675535160 1796.0
33.697268040 1861.0
33.719000920 1831.0
33.740733800 1801.0
33.762466680 1777.0
33.784199560 1841.0
33.805932440 1820.0
33.827665320 1834.0
33.849398200 1833.0
33.871131080 1861.0
33.892863960 1839.0
33.914596840 1791.0
33.936329720 1917.0
33.958062600 1796.0
33.979795480 1872.0
34.001528360 1799.0
34.023261240 1780.0
34.044994120 1857.0
34.066727000 1849.0
34.088459880 1798.0
34.110192760 1837.0
34.131925640 1805.0
34.153658520 1846.0
34.175391400 1857.0
34.197124280 1890.0
34.218857160 1883.0
34.240590040 1913.0
34.262322920 1853.0
34.284055800 1817.0
34.305788680 1903.0
34.327521560 1839.0
34.349254440 1773.0
34.370987320 1828.0
34.392720200 1850.0
34.414453080 1795.0
34.436185960 1852.0
34.457918840 1729.0
34.479651720 1776.0
34.501384600 1776.0
34.523117480 1850.0
34.544850360 1809.0
34.566583240 1817.0
34.588316120 1758.0
34.610049000 1759.0
34.631781880 1812.0
34.653514760 1764.0
34.675247640 1723.0
34.696980520 1763.0
34.718713400 1766.0
34.740446280 1769.0
34.762179160 1788.0
34.783912040 1758.0
34.805644920 1796.0
34.827377800 1833.0
34.849110680 1809.0
34.870843560 1861.0
34.892576440 1882.0
34.914309320 1829.0
34.936042200 1853.0
34.957775080 1825.0
34.979507960 1845.0
35.001240840 1897.0
35.022973720 1866.0
35.044706600 1849.0
35.066439480 1932.0
35.088172360 1891.0
35.109905240 1925.0
35.131638120 1970.0
35.153371000 1875.0
35.175103880 1908.0
35.196836760 1844.0
35.218569640 1826.0
35.240302520 1885.0
35.262035400 1976.0
35.283768280 1901.0
35.305501160 1782.0
35.327234040 1742.0
35.348966920 1762.0
35.370699800 1691.0
35.392432680 1751.0
35.414165560 1765.0
35.435898440 1776.0
35.457631320 1752.0
35.479364200 1653.0
35.501097080 1652.0
35.522829960 1769.0
35.544562840 1735.0
35.566295720 1647.0
35.588028600 1761.0
35.609761480 1669.0
35.631494360 1695.0
35.653227240 1767.0
35.674960120 1699.0
35.696693000 1742.0
35.718425880 1688.0
35.740158760 1709.0
35.761891640 1692.0
35.783624520 1722.0
35.805357400 1724.0
35.827090280 1697.0
35.848823160 1660.0
35.870556040 1696.0
35.892288920 1740.0
35.914021800 1714.0
35.935754680 1750.0
35.957487560 1643.0
35.979220440 1715.0
36.000953320 1598.0
36.022686200 1701.0
36.044419080 1640.0
36.066151960 1745.0
36.087884840 1726.0
36.109617720 1658.0
36.131350600 1626.0
36.153083480 1660.0
36.174816360 1616.0
36.196549240 1646.0
36.218282120 1651.0
36.240015000 1647.0
36.261747880 1612.0
36.283480760 1639.0
36.305213640 1649.0
36.326946520 1636.0
36.348679400 1637.0
36.370412280 1689.0
36.392145160 1627.0
36.413878040 1671.0
36.435610920 1641.0
36.457343800 1623.0
36.479076680 1612.0
36.500809560 1662.0
36.522542440 1650.0
36.544275320 1706.0
36.566008200 1722.0
36.587741080 1635.0
36.609473960 1689.0
36.631206840 1682.0
36.652939720 1737.0
36.674672600 1753.0
36.696405480 1718.0
36.718138360 1763.0
36.739871240 1793.0
36.761604120 1769.0
36.783337000 1753.0
36.805069880 1721.0
36.826802760 1686.0
36.848535640 1706.0
36.870268520 1708.0
36.892001400 1679.0
36.913734280 1612.0
36.935467160 1610.0
36.957200040 1617.0
36.978932920 1573.0
37.000665800 1640.0
37.022398680 1650.0
37.044131560 1574.0
37.065864440 1572.0
37.087597320 1590.0
37.109330200 1645.0
37.131063080 1537.0
37.152795960 1581.0
37.174528840 1637.0
37.196261720 1571.0
37.217994600 1593.0
37.239727480 1563.0
37.261460360 1650.0
37.283193240 1598.0
37.304926120 1547.0
37.326659000 1579.0
37.348391880 1611.0
37.370124760 1612.0
37.391857640 1620.0
37.413590520 1628.0
37.435323400 1645.0
37.457056280 1613.0
37.478789160 1639.0
37.500522040 1662.0
37.522254920 1659.0
37.543987800 1643.0
37.565720680 1596.0
37.587453560 1590.0
37.609186440 1571.0
37.630919320 1538.0
37.652652200 1557.0
37.674385080 1628.0
37.696117960 1618.0
37.717850840 1544.0
37.739583720 1534.0
37.761316600 1545.0
37.783049480 1529.0
37.804782360 1533.0
37.826515240 1527.0
37.848248120 1557.0
37.869981000 1566.0
37.891713880 1512.0
37.913446760 1529.0
37.935179640 1517.0
37.956912520 1521.0
37.978645400 1538.0
38.000378280 1533.0
38.022111160 1518.0
38.043844040 1460.0
38.065576920 1491.0
38.087309800 1557.0
38.109042680 1457.0
38.130775560 1463.0
38.152508440 1462.0
38.174241320 1537.0
38.195974200 1555.0
38.217707080 1587.0
38.239439960 1573.0
38.261172840 1483.0
38.282905720 1558.0
38.304638600 1548.0
38.326371480 1512.0
38.348104360 1500.0
38.369837240 1399.0
38.391570120 1482.0
38.413303000 1512.0
38.435035880 1462.0
38.456768760 1464.0
38.478501640 1529.0
38.500234520 1477.0
38.521967400 1470.0
38.543700280 1472.0
38.565433160 1463.0
38.587166040 1438.0
38.608898920 1516.0
38.630631800 1537.0
38.652364680 1516.0
38.674097560 1593.0
38.695830440 1487.0
38.717563320 1534.0
38.739296200 1537.0
38.761029080 1490.0
38.782761960 1482.0
38.804494840 1518.0
38.826227720 1520.0
38.847960600 1539.0
38.869693480 1593.0
38.891426360 1539.0
38.913159240 1518.0
38.934892120 1579.0
38.956625000 1478.0
38.978357880 1471.0
39.000090760 1549.0
39.021823640 1622.0
39.043556520 1553.0
39.065289400 1538.0
39.087022280 1600.0
39.108755160 1453.0
39.130488040 1547.0
39.152220920 1566.0
39.173953800 1577.0
39.195686680 1558.0
39.217419560 1497.0
39.239152440 1577.0
39.260885320 1520.0
39.282618200 1458.0
39.304351080 1429.0
39.326083960 1521.0
39.347816840 1470.0
39.369549720 1461.0
39.391282600 1452.0
39.413015480 1483.0
39.434748360 1419.0
39.456481240 1461.0
39.478214120 1482.0
39.499947000 1562.0
39.521679880 1479.0
39.543412760 1471.0
39.565145640 1397.0
39.586878520 1451.0
39.608611400 1465.0
39.630344280 1464.0
39.652077160 1506.0
39.673810040 1465.0
39.695542920 1465.0
39.717275800 1476.0
39.739008680 1489.0
39.760741560 1506.0
39.782474440 1454.0
39.804207320 1524.0
39.825940200 1505.0
39.847673080 1515.0
39.869405960 1527.0
39.891138840 1506.0
39.912871720 1451.0
39.934604600 1429.0
39.956337480 1423.0
39.978070360 1479.0
39.999803240 1437.0
40.021536120 1432.0
40.043269000 1394.0
40.065001880 1459.0
40.086734760 1454.0
40.108467640 1475.0
40.130200520 1453.0
40.151933400 1444.0
40.173666280 1448.0
40.195399160 1528.0
40.217132040 1510.0
40.238864920 1447.0
40.260597800 1426.0
40.282330680 1510.0
40.304063560 1465.0
40.325796440 1431.0
40.347529320 1440.0
40.369262200 1485.0
40.390995080 1451.0
40.412727960 1453.0
40.434460840 1417.0
40.456193720 1441.0
40.477926600 1466.0
40.499659480 1445.0
40.521392360 1465.0
40.543125240 1431.0
40.564858120 1423.0
40.586591000 1434.0
40.608323880 1407.0
40.630056760 1411.0
40.651789640 1452.0
40.673522520 1465.0
40.695255400 1430.0
40.716988280 1373.0
40.738721160 1474.0
40.760454040 1446.0
40.782186920 1472.0
40.803919800 1429.0
40.825652680 1390.0
40.847385560 1389.0
40.869118440 1387.0
40.890851320 1413.0
40.912584200 1448.0
40.934317080 1426.0
40.956049960 1376.0
40.977782840 1444.0
40.999515720 1392.0
41.021248600 1382.0
41.042981480 1434.0
41.064714360 1436.0
41.086447240 1349.0
41.108180120 1350.0
41.129913000 1389.0
41.151645880 1442.0
41.173378760 1402.0
41.195111640 1471.0
41.216844520 1342.0
41.238577400 1400.0
41.260310280 1396.0
41.282043160 1376.0
41.303776040 1353.0
41.325508920 1410.0
41.347241800 1449.0
41.368974680 1402.0
41.390707560 1484.0
41.412440440 1414.0
41.434173320 1429.0
41.455906200 1392.0
41.477639080 1509.0
41.499371960 1359.0
41.521104840 1414.0
41.542837720 1436.0
41.564570600 1404.0
41.586303480 1392.0
41.608036360 1457.0
41.629769240 1427.0
41.651502120 1413.0
41.673235000 1472.0
41.694967880 1410.0
41.716700760 1406.0
41.738433640 1398.0
41.760166520 1410.0
41.781899400 1445.0
41.803632280 1426.0
41.825365160 1517.0
41.847098040 1401.0
41.868830920 1499.0
41.890563800 1443.0
41.912296680 1495.0
41.934029560 1451.0
41.955762440 1424.0
41.977495320 1485.0
41.999228200 1507.0
42.020961080 1471.0
42.042693960 1415.0
42.064426840 1502.0
42.086159720 1397.0
42.107892600 1422.0
42.129625480 1401.0
42.151358360 1393.0
42.173091240 1439.0
42.194824120 1511.0
42.216557000 1425.0
42.238289880 1356.0
42.260022760 1338.0
42.281755640 1456.0
42.303488520 1456.0
42.325221400 1398.0
42.346954280 1435.0
42.368687160 1461.0
42.390420040 1426.0
42.412152920 1415.0
42.433885800 1458.0
42.455618680 1416.0
42.477351560 1419.0
42.499084440 1446.0
42.520817320 1388.0
42.542550200 1417.0
42.564283080 1423.0
42.586015960 1413.0
42.607748840 1437.0
42.629481720 1409.0
42.651214600 1456.0
42.672947480 1412.0
42.694680360 1452.0
42.716413240 1445.0
42.738146120 1400.0
42.759879000 1404.0
42.781611880 1448.0
42.803344760 1468.0
42.825077640 1429.0
42.846810520 1488.0
42.868543400 1404.0
42.890276280 1413.0
42.912009160 1358.0
42.933742040 1318.0
42.955474920 1415.0
42.977207800 1392.0
42.998940680 1396.0
43.020673560 1428.0
43.042406440 1432.0
43.064139320 1365.0
43.085872200 1348.0
43.107605080 1385.0
43.129337960 1421.0
43.151070840 1375.0
43.172803720 1429.0
43.194536600 1410.0
43.216269480 1380.0
43.238002360 1422.0
43.259735240 1412.0
43.281468120 1429.0
43.303201000 1390.0
43.324933880 1394.0
43.346666760 1436.0
43.368399640 1347.0
43.390132520 1429.0
43.411865400 1427.0
43.433598280 1379.0
43.455331160 1362.0
43.477064040 1377.0
43.498796920 1414.0
43.520529800 1401.0
43.542262680 1403.0
43.563995560 1377.0
43.585728440 1370.0
43.607461320 1360.0
43.629194200 1307.0
43.650927080 1372.0
43.672659960 1365.0
43.694392840 1326.0
43.716125720 1367.0
43.737858600 1403.0
43.759591480 1400.0
43.781324360 1389.0
43.803057240 1422.0
43.824790120 1419.0
43.846523000 1418.0
43.868255880 1405.0
43.889988760 1361.0
43.911721640 1336.0
43.933454520 1363.0
43.955187400 1264.0
43.976920280 1418.0
43.998653160 1368.0
44.020386040 1394.0
44.042118920 1343.0
44.063851800 1337.0
44.085584680 1315.0
44.107317560 1300.0
44.129050440 1345.0
44.150783320 1366.0
44.172516200 1420.0
44.194249080 1417.0
44.215981960 1369.0
44.237714840 1383.0
44.259447720 1302.0
44.281180600 1384.0
44.302913480 1330.0
44.324646360 1330.0
44.346379240 1357.0
44.368112120 1307.0
44.389845000 1288.0
44.411577880 1324.0
44.433310760 1389.0
44.455043640 1360.0
44.476776520 1372.0
44.498509400 1396.0
44.520242280 1384.0
44.541975160 1475.0
44.563708040 1360.0
44.585440920 1401.0
44.607173800 1370.0
44.628906680 1335.0
44.650639560 1408.0
44.672372440 1360.0
44.694105320 1438.0
44.715838200 1316.0
44.737571080 1390.0
44.759303960 1299.0
44.781036840 1452.0
44.802769720 1369.0
44.824502600 1372.0
44.846235480 1417.0
44.867968360 1427.0
44.889701240 1299.0
44.911434120 1379.0
44.933167000 1380.0
44.954899880 1331.0
44.976632760 1330.0
44.998365640 1276.0
45.020098520 1313.0
45.041831400 1385.0
45.063564280 1357.0
45.085297160 1268.0
45.107030040 1357.0
45.128762920 1404.0
45.150495800 1388.0
45.172228680 1398.0
45.193961560 1376.0
45.215694440 1366.0
45.237427320 1361.0
45.259160200 1387.0
45.280893080 1396.0
45.302625960 1351.0
45.324358840 1345.0
45.346091720 1366.0
45.367824600 1371.0
45.389557480 1382.0
45.411290360 1382.0
45.433023240 1411.0
45.454756120 1400.0
45.476489000 1424.0
45.498221880 1336.0
45.519954760 1308.0
45.541687640 1380.0
45.563420520 1370.0
45.585153400 1452.0
45.606886280 1461.0
45.628619160 1370.0
45.650352040 1363.0
45.672084920 1383.0
45.693817800 1262.0
45.715550680 1481.0
45.737283560 1399.0
45.759016440 1417.0
45.780749320 1396.0
45.802482200 1416.0
45.824215080 1426.0
45.845947960 1424.0
45.867680840 1445.0
45.889413720 1357.0
45.911146600 1395.0
45.932879480 1431.0
45.954612360 1384.0
45.976345240 1386.0
45.998078120 1335.0
46.019811000 1378.0
46.041543880 1380.0
46.063276760 1369.0
46.085009640 1288.0
46.106742520 1341.0
46.128475400 1316.0
46.150208280 1390.0
46.171941160 1323.0
46.193674040 1301.0
46.215406920 1381.0
46.237139800 1334.0
46.258872680 1343.0
46.280605560 1338.0
46.302338440 1384.0
46.324071320 1410.0
46.345804200 1368.0
46.367537080 1293.0
46.389269960 1308.0
46.411002840 1340.0
46.432735720 1293.0
46.454468600 1352.0
46.476201480 1370.0
46.497934360 1391.0
46.519667240 1300.0
46.541400120 1336.0
46.563133000 1333.0
46.584865880 1400.0
46.606598760 1335.0
46.628331640 1378.0
46.650064520 1400.0
46.671797400 1363.0
46.693530280 1340.0
46.715263160 1395.0
46.736996040 1370.0
46.758728920 1373.0
46.780461800 1304.0
46.802194680 1354.0
46.823927560 1317.0
46.845660440 1375.0
46.867393320 1357.0
46.889126200 1252.0
46.910859080 1366.0
46.932591960 1352.0
46.954324840 1302.0
46.976057720 1306.0
46.997790600 1282.0
47.019523480 1338.0
47.041256360 1256.0
47.062989240 1249.0
47.084722120 1308.0
47.106455000 1323.0
47.128187880 1336.0
47.149920760 1330.0
47.171653640 1268.0
47.193386520 1287.0
47.215119400 1235.0
47.236852280 1242.0
47.258585160 1341.0
47.280318040 1334.0
47.302050920 1315.0
47.323783800 1368.0
47.345516680 1299.0
47.367249560 1336.0
47.388982440 1319.0
47.410715320 1377.0
47.432448200 1382.0
47.454181080 1429.0
47.475913960 1301.0
47.497646840 1366.0
47.519379720 1346.0
47.541112600 1359.0
47.562845480 1277.0
47.584578360 1336.0
47.606311240 1263.0
47.628044120 1354.0
47.649777000 1258.0
47.671509880 1323.0
47.693242760 1292.0
47.714975640 1351.0
47.736708520 1383.0
47.758441400 1338.0
47.780174280 1335.0
47.801907160 1350.0
47.823640040 1346.0
47.845372920 1326.0
47.867105800 1382.0
47.888838680 1373.0
47.910571560 1376.0
47.932304440 1325.0
47.954037320 1366.0
47.975770200 1367.0
47.997503080 1361.0
48.019235960 1319.0
48.040968840 1350.0
48.062701720 1409.0
48.084434600 1266.0
48.106167480 1314.0
48.127900360 1318.0
48.149633240 1321.0
48.171366120 1396.0
48.193099000 1246.0
48.214831880 1287.0
48.236564760 1302.0
48.258297640 1286.0
48.280030520 1256.0
48.301763400 1222.0
48.323496280 1273.0
48.345229160 1290.0
48.366962040 1314.0
48.388694920 1348.0
48.410427800 1364.0
48.432160680 1350.0
48.453893560 1284.0
48.475626440 1312.0
48.497359320 1274.0
48.519092200 1383.0
48.540825080 1333.0
48.562557960 1298.0
48.584290840 1339.0
48.606023720 1393.0
48.627756600 1339.0
48.649489480 1359.0
48.671222360 1331.0
48.692955240 1308.0
48.714688120 1287.0
48.736421000 1290.0
48.758153880 1262.0
48.779886760 1296.0
48.801619640 1248.0
48.823352520 1349.0
48.845085400 1358.0
48.866818280 1340.0
48.888551160 1293.0
48.910284040 1362.0
48.932016920 1283.0
48.953749800 1229.0
48.975482680 1274.0
48.997215560 1342.0
49.018948440 1319.0
49.040681320 1304.0
49.062414200 1307.0
49.084147080 1358.0
49.105879960 1263.0
49.127612840 1284.0
49.149345720 1330.0
49.171078600 1327.0
49.192811480 1341.0
49.214544360 1266.0
49.236277240 1399.0
49.258010120 1297.0
49.279743000 1366.0
49.301475880 1309.0
49.323208760 1282.0
49.344941640 1285.0
49.366674520 1342.0
49.388407400 1330.0
49.410140280 1278.0
49.431873160 1242.0
49.453606040 1290.0
49.475338920 1305.0
49.497071800 1331.0
49.518804680 1258.0
49.540537560 1304.0
49.562270440 1314.0
49.584003320 1281.0
49.605736200 1352.0
49.627469080 1310.0
49.649201960 1313.0
49.670934840 1394.0
49.692667720 1410.0
49.714400600 1407.0
49.736133480 1330.0
49.757866360 1349.0
49.779599240 1329.0
49.801332120 1317.0
49.823065000 1380.0
49.844797880 1293.0
49.866530760 1344.0
49.888263640 1267.0
49.909996520 1349.0
49.931729400 1316.0
49.953462280 1281.0
49.975195160 1283.0
49.996928040 1308.0
